Mon Feb 20 14:08:51 2023
Cyclic Voltammetry
File: C:\Users\Lab\D3talesRobotics\data\cv_exp01_robot_diffusion_2\20230220\exp05_14_08_36.csv
Data Source: KBIO Potentiostat
Instrument Model: SP50E
Header:
Note:

Scan Rate (V/s) = 0.200
Segment = 2

Potential/V, Current/A
-0.52309078,-0.020258034
-0.52249408,-0.019510709
-0.52147508,-0.018484103
-0.5204913,-0.017661454
-0.51944864,-0.017014825
-0.51852793,-0.016487849
-0.5174703,-0.015970609
-0.51649445,-0.015538829
-0.51550281,-0.015201164
-0.51449746,-0.014828355
-0.51345855,-0.014485812
-0.51252872,-0.0142278
-0.5115031,-0.013951821
-0.51050347,-0.013641901
-0.50949484,-0.013430796
-0.5084601,-0.013213518
-0.50749254,-0.012942844
-0.50646728,-0.012714482
-0.50547522,-0.012554953
-0.50448358,-0.012329317
-0.5034501,-0.012113403
-0.50245422,-0.011957768
-0.5015049,-0.01179464
-0.50050086,-0.011578656
-0.49951583,-0.011421362
-0.49850094,-0.011276425
-0.49750352,-0.011084236
-0.49645087,-0.010916666
-0.49547172,-0.010801323
-0.49446961,-0.010621228
-0.49345353,-0.01045961
-0.49245858,-0.010339139
-0.49148554,-0.010220923
-0.49049145,-0.01002857
-0.48949566,-0.009913592
-0.48848161,-0.009807915
-0.48747918,-0.009631828
-0.48648632,-0.009505752
-0.48546728,-0.009410461
-0.48449972,-0.009265323
-0.4834778,-0.009111806
-0.48245046,-0.009015276
-0.48148495,-0.008899316
-0.48042655,-0.008752311
-0.47945103,-0.008657628
-0.47847101,-0.008561949
-0.47742712,-0.008395168
-0.47647899,-0.008299551
-0.4754546,-0.008224007
-0.47446957,-0.008105999
-0.47344026,-0.007965006
-0.47247058,-0.007896837
-0.47149637,-0.007802819
-0.47048974,-0.007652457
-0.4694865,-0.007577059
-0.4684712,-0.007508745
-0.46750075,-0.007364085
-0.46649042,-0.007275442
-0.46542951,-0.007207454
-0.46448013,-0.007085544
-0.46343836,-0.006975293
-0.46248734,-0.006913068
-0.46147332,-0.006833698
-0.46050486,-0.006698905
-0.45949414,-0.006635677
-0.45849589,-0.006570048
-0.45747188,-0.006435524
-0.45643836,-0.006349158
-0.45545086,-0.006310522
-0.45441273,-0.006198686
-0.45343813,-0.006089466
-0.45248252,-0.006047985
-0.45143947,-0.005959184
-0.4504694,-0.005854593
-0.44948274,-0.005811569
-0.44847989,-0.005740294
-0.44744802,-0.005625248
-0.44646925,-0.005549753
-0.44546637,-0.005501595
-0.44446853,-0.00541453
-0.44349885,-0.005326206
-0.44248149,-0.005290786
-0.44146001,-0.005210198
-0.44043767,-0.005106541
-0.43945432,-0.005051596
-0.43847096,-0.004998241
-0.437437,-0.00490899
-0.43648893,-0.004840441
-0.43549773,-0.004803617
-0.43446329,-0.00470991
-0.43348536,-0.004621371
-0.43248126,-0.004609277
-0.43146014,-0.0045281
-0.43048179,-0.004435168
-0.42945075,-0.004394033
-0.42842507,-0.004337704
-0.42743221,-0.004255296
-0.42643601,-0.004187204
-0.42546597,-0.004170279
-0.42446265,-0.004082903
-0.42346686,-0.004001983
-0.41957349,-0.003796744
-0.41552415,-0.003604564
-0.41453254,-0.003533469
-0.41351804,-0.003455147
-0.41252351,-0.003438613
-0.41149992,-0.003391532
-0.41057715,-0.003303912
-0.4095175,-0.003269509
-0.40852252,-0.003244241
-0.40756905,-0.003161272
-0.406555,-0.003105063
-0.40555048,-0.003094983
-0.40454638,-0.003026142
-0.40351415,-0.002954978
-0.40251249,-0.002943784
-0.40154159,-0.002898607
-0.40051264,-0.002817482
-0.39953509,-0.002790656
-0.39852726,-0.002772226
-0.39754683,-0.002690934
-0.39656103,-0.002642715
-0.39558098,-0.002635012
-0.39455241,-0.002570948
-0.39352632,-0.002502596
-0.39256042,-0.002499106
-0.39153683,-0.00245874
-0.39054894,-0.002381421
-0.38950625,-0.002358665
-0.38854864,-0.002344301
-0.38753,-0.002266753
-0.38656077,-0.002222864
-0.38556328,-0.002221412
-0.38455921,-0.002161785
-0.38355762,-0.002100751
-0.38255769,-0.002098616
-0.38153866,-0.002064054
-0.38055408,-0.001988529
-0.37954253,-0.001969109
-0.37852725,-0.001959539
-0.3775385,-0.001887411
-0.37652361,-0.001847368
-0.37552494,-0.001849212
-0.37455568,-0.001794499
-0.3735317,-0.001736856
-0.3725251,-0.001740037
-0.37151605,-0.001705443
-0.37049127,-0.001639742
-0.36957338,-0.001623862
-0.3685585,-0.001616612
-0.36752293,-0.001547149
-0.36653751,-0.001510575
-0.36552015,-0.001517628
-0.36452645,-0.001465565
-0.36350241,-0.001410674
-0.36253151,-0.001417926
-0.36152995,-0.001390881
-0.36052626,-0.001322959
-0.35954744,-0.001316309
-0.35852429,-0.001309806
-0.35750446,-0.001246631
-0.35653019,-0.001212254
-0.35554647,-0.001221759
-0.35455897,-0.001174872
-0.35357603,-0.001120914
-0.35254785,-0.001130134
-0.35152513,-0.00110667
-0.35049039,-0.001044288
-0.34949914,-0.001039361
-0.34851205,-0.001036191
-0.34755483,-0.000977447
-0.34653333,-0.000948586
-0.34553507,-0.000958935
-0.34455791,-0.000916812
-0.34355631,-0.000866042
-0.34253401,-0.000878673
-0.34153071,-0.000861245
-0.34048766,-0.000799449
-0.33953044,-0.000797966
-0.33853838,-0.000798442
-0.33751228,-0.000739002
-0.33652973,-0.000715052
-0.33554891,-0.00072895
-0.33459917,-0.000688696
-0.33351257,-0.000644126
-0.33253375,-0.000658465
-0.33152592,-0.000641755
-0.33052766,-0.000585683
-0.32949951,-0.000583758
-0.32853526,-0.0005894
-0.32752573,-0.000531523
-0.32647315,-0.000508802
-0.32547987,-0.000528605
-0.32450104,-0.000490012
-0.32350194,-0.00044636
-0.32250285,-0.000465676
-0.32152656,-0.000451805
-0.32054278,-0.000399261
-0.31954908,-0.000403462
-0.3185342,-0.00040857
-0.31753591,-0.000355799
-0.31650361,-0.000335573
-0.31554347,-0.000355713
-0.31456551,-0.000323269
-0.31357643,-0.000280071
-0.31254014,-0.000301934
-0.31152987,-0.000289562
-0.31052002,-0.000236528
-0.30951238,-0.000246407
-0.30856106,-0.000253753
-0.30754644,-0.000202105
-0.30652103,-0.000186722
-0.30553854,-0.00020645
-0.30451995,-0.000174495
-0.30354181,-0.000136177
-0.30251506,-0.000159082
-0.30149612,-0.000148139
-0.30049017,-9.89242E-05
-0.29951936,-0.000112637
-0.29847005,-0.00011915
-0.29751313,-7.18132E-05
-0.29652238,-5.74171E-05
-0.29546613,-8.20589E-05
-0.29453999,-4.67663E-05
-0.2935254,-1.49572E-05
-0.29251122,-4.0083E-05
-0.29150876,-3.01781E-05
-0.29052106,1.68917E-05
-0.28948176,7.41435E-06
-0.2885434,-5.3417E-06
-0.28748459,4.05756E-05
-0.28652287,5.27948E-05
-0.28552818,2.74426E-05
-0.28452051,6.37892E-05
-0.28349334,9.10644E-05
-0.28257498,6.26744E-05
-0.28153527,7.29106E-05
-0.28051588,0.000118299
-0.27952641,0.000101102
-0.2785491,9.30438E-05
-0.27755144,0.000133945
-0.27650949,0.000151781
-0.275507,0.000120548
-0.27451149,0.000152443
-0.27349731,0.000182262
-0.27252519,0.000152947
-0.2715106,0.000159454
-0.27050248,0.000204674
-0.26953343,0.000187231
-0.26847067,0.000176849
-0.26749247,0.000217536
-0.26652992,0.000228391
-0.26551533,0.0002018
-0.26451284,0.000230702
-0.26348481,0.000260918
-0.26254347,0.000231127
-0.26152885,0.000236962
-0.26047608,0.000279735
-0.25947452,0.000260204
-0.25849804,0.000247636
-0.25750038,0.00029171
-0.25649875,0.000297567
-0.25548545,0.000270222
-0.25453675,0.000300463
-0.25350264,0.00032834
-0.25248197,0.000297716
-0.2515133,0.000302536
-0.25051737,0.000344437
-0.24953613,0.000328164
-0.24846905,0.000310254
-0.24751256,0.000355462
-0.24648623,0.000357471
-0.24548593,0.000330088
-0.24446659,0.000361938
-0.24348922,0.000387839
-0.24249977,0.000355824
-0.24150598,0.000360236
-0.24048923,0.000402565
-0.239521,0.000384033
-0.23849469,0.000370337
-0.2375048,0.000408603
-0.23650362,0.00041639
-0.2354916,0.000386241
-0.23451345,0.000416286
-0.23350446,0.000441649
-0.2324903,0.000407795
-0.23155154,0.000414424
-0.23054521,0.000455301
-0.22951888,0.000436732
-0.22851989,0.000419978
-0.22748619,0.000460193
-0.22653013,0.000467021
-0.22547434,0.000438164
-0.22451825,0.000464946
-0.22346245,0.00049016
-0.22243832,0.000457722
-0.22148398,0.000462516
-0.22047587,0.00050406
-0.21954192,0.00048181
-0.21852037,0.000466801
-0.21753699,0.000506732
-0.21648291,0.000514151
-0.21551123,0.000484303
-0.21450271,0.00051262
-0.21349028,0.000537967
-0.2124774,0.000507997
-0.21150875,0.00050961
-0.21046768,0.000553345
-0.20951726,0.000525899
-0.2084619,0.000512265
-0.20747659,0.000551095
-0.2065123,0.000556981
-0.2054792,0.000524353
-0.20450912,0.000557689
-0.20349757,0.000578547
-0.20249638,0.000548591
-0.20149559,0.000555053
-0.20049526,0.000592186
-0.19950154,0.000571028
-0.19852939,0.00055911
-0.19747677,0.000596435
-0.19646648,0.000600218
-0.19552542,0.000570008
-0.19447406,0.000600379
-0.19350024,0.000622585
-0.19251564,0.000590838
-0.19153355,0.000595634
-0.19050914,0.000636154
-0.18948886,0.000612418
-0.18850344,0.000601329
-0.18748941,0.000640916
-0.18649444,0.000645323
-0.18550281,0.000613301
-0.18453604,0.000642556
-0.1834714,0.000665992
-0.1824922,0.000634854
-0.18153082,0.000638317
-0.18050601,0.000679403
-0.17952722,0.000656355
-0.17845926,0.000642483
-0.17747217,0.000681312
-0.17650624,0.000686442
-0.17551211,0.000654687
-0.17451592,0.000690051
-0.1734944,0.000705093
-0.17247912,0.000677462
-0.17147459,0.000680194
-0.17047675,0.000720339
-0.16946436,0.000700148
-0.1685034,0.000684747
-0.16747113,0.000724086
-0.16647698,0.000729861
-0.16546296,0.000696811
-0.16450407,0.00072946
-0.16351865,0.000749401
-0.1625133,0.00071802
-0.16152498,0.000725063
-0.16049312,0.000763061
-0.15949109,0.000742231
-0.15843351,0.000729087
-0.15752563,0.000767025
-0.15649544,0.000773979
-0.15549134,0.000739946
-0.1544943,0.00077063
-0.15351054,0.000793419
-0.15248239,0.000762031
-0.15149988,0.000768583
-0.15049163,0.000808529
-0.14948963,0.000783525
-0.14849757,0.00077553
-0.14747316,0.000812733
-0.14645952,0.000815851
-0.14549069,0.000785664
-0.14448288,0.000815671
-0.1434709,0.000838103
-0.14250748,0.000806078
-0.14146149,0.000813192
-0.1405022,0.000854243
-0.13950807,0.000829473
-0.13847537,0.000817823
-0.13747957,0.000858125
-0.13648212,0.000862938
-0.13551702,0.000831173
-0.13445736,0.000863244
-0.13347442,0.000883879
-0.13247904,0.00085341
-0.13150772,0.000860344
-0.13047294,0.000900086
-0.12950327,0.000875343
-0.12851329,0.000865708
-0.1274839,0.000904822
-0.12646115,0.000911672
-0.12544464,0.00087891
-0.12449114,0.000912739
-0.1234995,0.000935245
-0.1224618,0.000903464
-0.12141252,0.000911454
-0.12050673,0.000950007
-0.11945288,0.000928919
-0.11852135,0.000919214
-0.11750441,0.000956048
-0.11652479,0.000960888
-0.11544772,0.000931964
-0.11448345,0.000963463
-0.11348225,0.000986399
-0.11244002,0.000953642
-0.11146536,0.000964259
-0.11047953,0.001006895
-0.10945182,0.000980925
-0.10850537,0.000973815
-0.10751829,0.001010836
-0.10648683,0.001016596
-0.10548232,0.000989151
-0.1044351,0.001020715
-0.10344926,0.001044731
-0.10244476,0.001016532
-0.10146598,0.001023433
-0.10050046,0.001062297
-0.099487089,0.001040473
-0.098482028,0.001030737
-0.097465247,0.001078139
-0.096415512,0.001076094
-0.095495,0.001051286
-0.094447009,0.001090316
-0.093417227,0.001109005
-0.092422128,0.001080986
-0.091448717,0.001089154
-0.090488315,0.001131353
-0.089450292,0.001110133
-0.088465162,0.001101776
-0.087462701,0.001146036
-0.08648061,0.001148456
-0.085481182,0.001121493
-0.084465273,0.00116113
-0.083472349,0.001181279
-0.082423918,0.001154504
-0.081462651,0.001163881
-0.080491833,0.001206732
-0.079508886,0.001184888
-0.078443542,0.001179474
-0.077478804,0.001223927
-0.076455951,0.001230785
-0.075504221,0.001203163
-0.07445883,0.00124202
-0.073506661,0.001266703
-0.072479479,0.001235971
-0.071452729,0.001254139
-0.070456766,0.00129727
-0.069454312,0.001272979
-0.068458773,0.001271107
-0.067463242,0.001313696
-0.06642653,0.001319493
-0.065415829,0.001295466
-0.064461052,0.00133679
-0.063461192,0.00136076
-0.06249341,0.00133582
-0.061486177,0.001348838
-0.060471997,0.0013968
-0.059437446,0.001374786
-0.058457527,0.001372319
-0.057430349,0.001419735
-0.056410965,0.001423637
-0.055436689,0.001404757
-0.054429017,0.001447731
-0.053462543,0.001470435
-0.052419316,0.001447026
-0.051421188,0.00146178
-0.050475519,0.00150898
-0.049476959,0.001491149
-0.04843634,0.001489735
-0.04744688,0.001535886
-0.04646913,0.001548677
-0.045389481,0.001526496
-0.044417802,0.001571181
-0.043446556,0.001598276
-0.042515628,0.001573168
-0.041476745,0.001593629
-0.040434387,0.001641474
-0.039410245,0.001622993
-0.038449835,0.001624237
-0.037480757,0.00167154
-0.036444906,0.001682162
-0.035458915,0.001663893
-0.034498077,0.001708448
-0.033448346,0.001738677
-0.032469295,0.001716499
-0.031477239,0.001734961
-0.030486045,0.001784728
-0.029471001,0.001768158
-0.028478077,0.00176882
-0.027420975,0.001820889
-0.026436286,0.001831683
-0.025432954,0.001813836
-0.024454769,0.001856173
-0.023446232,0.001888355
-0.022409081,0.001869148
-0.021477722,0.00188862
-0.020398078,0.001942266
-0.01939171,0.001922897
-0.018417863,0.001926239
-0.017433606,0.001978107
-0.016415097,0.00198839
-0.01537491,0.001969183
-0.014440083,0.00201645
-0.013385586,0.002046309
-0.012416507,0.002025312
-0.011395831,0.002045828
-0.010469676,0.002094411
-0.009453769,0.002078906
-0.00846778,0.002082081
-0.007424123,0.002134006
-0.006474555,0.002144516
-0.005475992,0.002125151
-0.004442741,0.002173545
-0.003492739,0.002201904
-0.002420899,0.002178321
-0.001445316,0.002198996
-0.000443283,0.002248868
0.000569155,0.002231721
0.001538668,0.002235699
0.002550672,0.002285286
0.003562677,0.00229586
0.00457945,0.002289238
0.005656493,0.002329526
0.006639069,0.002352512
0.007663894,0.002333191
0.008658026,0.002353203
0.00965133,0.002401809
0.010686521,0.002384163
0.011644573,0.002387025
0.012652392,0.002437111
0.013634911,0.002444138
0.01467052,0.002425889
0.01563023,0.00247293
0.016623531,0.002499268
0.017620154,0.002480849
0.018642489,0.002500609
0.019637035,0.002549747
0.020671399,0.002529778
0.021648526,0.002535152
0.022622753,0.002586819
0.023672873,0.002592292
0.024660788,0.002575157
0.02569598,0.002623954
0.026646564,0.002650161
0.027666828,0.002631239
0.028608702,0.002651523
0.029656334,0.002703792
0.030651713,0.002692195
0.031695612,0.00269355
0.032716289,0.002747222
0.033663142,0.002757015
0.034669716,0.002740418
0.035676293,0.002789788
0.036633514,0.002821237
0.037630964,0.002801168
0.038660355,0.002829714
0.039719597,0.002880502
0.040671427,0.00286594
0.041642744,0.002877305
0.042668402,0.002932095
0.043705668,0.002949465
0.044654179,0.002936115
0.045681491,0.002988825
0.046654891,0.003022842
0.047636162,0.003010086
0.048663896,0.003042048
0.049701154,0.003097562
0.050659627,0.003088563
0.051680304,0.003105275
0.052627977,0.003169534
0.053656951,0.003183855
0.054631595,0.003184829
0.055621989,0.003241587
0.056708608,0.003289997
0.057696108,0.00328279
0.058662456,0.00331731
0.059636261,0.00338745
0.060679339,0.003386351
0.061687987,0.003409383
0.062676311,0.003481606
0.063641824,0.00350812
0.064689875,0.003518245
0.06567198,0.003586283
0.066645376,0.003641062
0.067662321,0.003647105
0.06863489,0.003699026
0.069653906,0.00377661
0.0706302,0.003792143
0.071631797,0.003825041
0.072640873,0.003912081
0.073647849,0.00396269
0.074679308,0.003977671
0.07558801,0.004061596
0.076635651,0.004135308
0.07764554,0.004157728
0.078624323,0.004226504
0.07962551,0.004320614
0.080652818,0.00435722
0.081636593,0.004416797
0.082658924,0.004523104
0.083658025,0.004590916
0.084694467,0.004627083
0.085678227,0.004737029
0.086671114,0.004834563
0.087664835,0.004876946
0.088664778,0.004965902
0.089687526,0.005096533
0.090659268,0.005154266
0.091629341,0.00523443
0.092644624,0.005370775
0.093681477,0.005471563
0.094697595,0.005543013
0.095646098,0.005678959
0.096655577,0.005813384
0.097670034,0.005886415
0.0986256,0.006018135
0.099647932,0.006179453
0.10064954,0.006275925
0.10164243,0.006388458
0.10266933,0.006571693
0.10364935,0.006703791
0.10465136,0.006822034
0.10565047,0.007001767
0.10668732,0.007177766
0.10765574,0.007324731
0.1086814,0.007486987
0.10968465,0.007695741
0.11067382,0.007846168
0.11164553,0.008010098
0.11266042,0.00825119
0.1136504,0.008415855
0.11463905,0.008591094
0.1156645,0.008840164
0.1166583,0.009075936
0.11762348,0.009264025
0.11862941,0.009502809
0.11965398,0.009774955
0.12069243,0.010004881
0.12167539,0.010234697
0.12262799,0.010538418
0.12368987,0.010808974
0.12773341,0.01199532
0.13164888,0.01325853
0.13269167,0.013657297
0.13367203,0.014030644
0.13470744,0.014372713
0.13566568,0.014775901
0.13667466,0.015183217
0.13764589,0.015534516
0.13869779,0.015952872
0.1396569,0.016413256
0.14066544,0.016813919
0.14167483,0.017254366
0.14268857,0.017740388
0.14362775,0.01819434
0.14470175,0.018649076
0.14569077,0.019173514
0.1466772,0.01968894
0.14766406,0.020178395
0.14867084,0.020693937
0.14966378,0.021286403
0.15063155,0.021786854
0.15170339,0.022364411
0.1526625,0.0229588
0.15368536,0.023535119
0.15466353,0.024108879
0.15564345,0.024749954
0.15664116,0.025405823
0.15765621,0.026008407
0.15867773,0.026679422
0.15968323,0.027399803
0.16067225,0.028046168
0.16167039,0.028728279
0.16271405,0.029466844
0.16368659,0.030186233
0.16466217,0.030880446
0.16565509,0.031640341
0.16664672,0.032435379
0.16769689,0.033157076
0.16865729,0.033961246
0.16964413,0.034785934
0.1706696,0.035560363
0.17170067,0.036398654
0.17265719,0.037272747
0.17366223,0.038114452
0.17468119,0.038947981
0.1756364,0.039830839
0.1766822,0.040767339
0.1776578,0.041620249
0.17865376,0.042525183
0.17970088,0.043500495
0.18067388,0.044427699
0.18163081,0.045342748
0.18263978,0.046349489
0.18367344,0.047287285
0.18466942,0.048314139
0.18567841,0.049327251
0.18669993,0.050358876
0.18769373,0.05135358
0.1886663,0.052364994
0.18969041,0.053457638
0.19067337,0.054460955
0.19166499,0.055502085
0.19267137,0.056628727
0.19369075,0.057701685
0.19468018,0.058750396
0.19567443,0.059891281
0.19664611,0.061020448
0.19767198,0.062104537
0.19870654,0.0632497
0.19965568,0.064406758
0.20068675,0.065556236
0.2016836,0.066668829
0.20265266,0.067878028
0.20366293,0.069031547
0.20468491,0.070156937
0.2056167,0.071375054
0.20663175,0.072582178
0.20768668,0.073733874
0.20864882,0.074942699
0.20967947,0.076193171
0.21067455,0.077385337
0.21170045,0.078576909
0.21268253,0.07983737
0.21367675,0.081064703
0.21465841,0.082263625
0.21567561,0.083524938
0.21667071,0.084762478
0.21765277,0.085965487
0.21863487,0.087223223
0.21962216,0.088501251
0.2206381,0.089666201
0.22168821,0.090920477
0.22265041,0.092210451
0.22364703,0.093472494
0.22466065,0.094691628
0.2256797,0.095969616
0.22663108,0.097239337
0.22766335,0.098460903
0.22863221,0.099691404
0.22963424,0.100935982
0.23059601,0.102197075
0.23166977,0.103471548
0.2326415,0.104754991
0.233629,0.106004663
0.23466668,0.107208879
0.23570065,0.108504753
0.23967148,0.11351254
0.24369642,0.118485641
0.24463747,0.119603316
0.24571411,0.12079164
0.24665725,0.121926828
0.24764764,0.12307861
0.24866749,0.124222303
0.24967575,0.125388961
0.2507014,0.126450033
0.25165653,0.127492905
0.25265646,0.128633902
0.25369826,0.12972858
0.25470984,0.130730553
0.25571105,0.131766017
0.25671095,0.132837117
0.25766236,0.13376878
0.25864863,0.134751933
0.25972903,0.135791674
0.26073727,0.136774198
0.26170069,0.137678313
0.26266828,0.138644364
0.26366866,0.139485721
0.26467729,0.140398274
0.26570916,0.141256245
0.26669085,0.142134337
0.26772147,0.142931327
0.26868659,0.143673444
0.26967654,0.144526487
0.27062762,0.145246674
0.27169389,0.145953291
0.27273697,0.146700596
0.27368006,0.147387415
0.27466092,0.147988984
0.27569449,0.148649027
0.27667531,0.149243671
0.27766946,0.149791751
0.27869552,0.150335479
0.27969503,0.150865825
0.28072858,0.151295845
0.28166673,0.15177424
0.28268781,0.152220374
0.28367823,0.152574001
0.28473788,0.152912318
0.28568888,0.153295417
0.28670335,0.153645648
0.28768831,0.153889094
0.28874844,0.154158011
0.28967747,0.154375164
0.29069561,0.154510394
0.29173163,0.154604704
0.29273659,0.154737299
0.29372367,0.154786573
0.29471073,0.154776814
0.29571396,0.154795078
0.29672304,0.154775849
0.2977064,0.154667619
0.29870594,0.154571147
0.29969671,0.154503687
0.30068839,0.154228949
0.30173063,0.154027576
0.30266628,0.153832972
0.30372056,0.153586481
0.3047151,0.153226148
0.30568933,0.152909828
0.30671042,0.152556217
0.30769876,0.152147102
0.3087132,0.151756589
0.30972019,0.151313493
0.31072301,0.150824801
0.3116869,0.150312704
0.31270921,0.149841648
0.31373531,0.149279872
0.31473607,0.14866979
0.31573686,0.14810144
0.31672764,0.147497106
0.31768945,0.146801483
0.31871384,0.146214588
0.31970671,0.145554694
0.3207112,0.144861559
0.32169458,0.144120007
0.32272646,0.143465156
0.32369071,0.14269978
0.32471928,0.141973099
0.32575986,0.14124461
0.3266789,0.140547278
0.32772613,0.139709447
0.32871312,0.139017492
0.32972294,0.138239774
0.3307198,0.137455163
0.33169279,0.136674462
0.33271733,0.135951926
0.33372679,0.135172045
0.33472446,0.134377155
0.33570132,0.133620127
0.33668298,0.13286461
0.3376902,0.132091207
0.33875555,0.131387786
0.33974937,0.130661924
0.34075311,0.129892734
0.34174171,0.129168397
0.34269691,0.128408312
0.34376529,0.127642456
0.34475559,0.126949156
0.3457312,0.126279951
0.34671846,0.12559524
0.34771532,0.124851093
0.34868005,0.124170386
0.34971631,0.123495312
0.35071144,0.122814093
0.35173988,0.122135479
0.35273632,0.121532249
0.35375351,0.120833811
0.35473517,0.12018493
0.35572115,0.119589372
0.35669068,0.118925875
0.35774344,0.118263326
0.35873419,0.117694388
0.35973579,0.117110325
0.3607209,0.116484025
0.36169693,0.115898659
0.36269248,0.115325819
0.36374131,0.114743137
0.3647221,0.114155541
0.3657549,0.113629065
0.36674568,0.113091529
0.36773512,0.112504211
0.36875969,0.112020719
0.36973357,0.111513642
0.3707265,0.110947088
0.37173849,0.110437261
0.37272486,0.110003395
0.37375382,0.109462743
0.37471902,0.108940979
0.37570933,0.108462626
0.37677163,0.108021014
0.37774372,0.107514012
0.37874317,0.107130783
0.37974995,0.106658796
0.38076934,0.106180149
0.38174492,0.105758368
0.38271317,0.105326015
0.38371646,0.104889909
0.3847276,0.104444034
0.38573441,0.104008069
0.38673168,0.103635556
0.38776147,0.103183746
0.3887336,0.102824181
0.38971436,0.102448923
0.39071077,0.102017949
0.3918086,0.101648909
0.39274865,0.101279072
0.39373723,0.100892381
0.39475226,0.100490781
0.39578983,0.100167535
0.39673296,0.099795668
0.39774185,0.09937953
0.39873397,0.09901758
0.39974549,0.098770149
0.40071025,0.098361683
0.40172663,0.098063105
0.40274426,0.09774261
0.40374151,0.097369584
0.40475437,0.097003363
0.40571395,0.096748923
0.40671375,0.09640144
0.40775397,0.096069074
0.40877077,0.095781355
0.40972155,0.095504192
0.41075876,0.095193171
0.41173172,0.094855672
0.41273853,0.094582199
0.41372544,0.094253967
0.41477168,0.093962625
0.41578713,0.093720981
0.4167189,0.093459884
0.41771576,0.093116598
0.41874337,0.092886389
0.41969338,0.09262507
0.42075396,0.092302836
0.42171043,0.092055992
0.42273721,0.091839962
0.42370498,0.091557159
0.42471132,0.091244259
0.42570946,0.091015132
0.42676702,0.090797079
0.42774737,0.090494676
0.42871732,0.090273655
0.42971411,0.090065151
0.4307344,0.089757892
0.43169567,0.089522402
0.43269941,0.089335164
0.43377993,0.089073415
0.43470013,0.088808321
0.4357208,0.088617462
0.43672243,0.088394147
0.43775472,0.088135338
0.4386974,0.087928981
0.43969655,0.087768019
0.44078109,0.087482213
0.44175488,0.087281047
0.44272494,0.087071088
0.44374105,0.086859746
0.44476798,0.086650411
0.44570696,0.086431116
0.4467372,0.086268008
0.44772175,0.086024418
0.4487702,0.085837782
0.44975811,0.085710936
0.45073691,0.085431156
0.45175013,0.085249634
0.45277703,0.0850985
0.45376205,0.084920649
0.45473796,0.084679072
0.45572916,0.084511123
0.45676643,0.084343649
0.45775515,0.084122415
0.45875511,0.083971416
0.45972231,0.08380097
0.46078649,0.083623751
0.46174124,0.083427909
0.46275407,0.083270683
0.4637436,0.083082382
0.46474311,0.082877898
0.46573517,0.082752778
0.4667173,0.082576386
0.46769357,0.082373621
0.46870062,0.082222839
0.46977016,0.082086025
0.47071454,0.081898903
0.47175434,0.081724654
0.47276503,0.081603622
0.47375339,0.081452347
0.47470894,0.08124038
0.47575739,0.08110959
0.47671625,0.08093541
0.4777655,0.080788495
0.47873732,0.080631202
0.47977418,0.080524145
0.48074588,0.080352873
0.48178729,0.080164438
0.48274243,0.080086102
0.48371544,0.079879121
0.48474815,0.079729994
0.48575014,0.079614629
0.48677707,0.079502178
0.48775622,0.079310903
0.48876488,0.079220946
0.48979425,0.079091261
0.49076602,0.078933762
0.49175763,0.078745397
0.49274519,0.078684493
0.49376544,0.078515782
0.49480847,0.0783553
0.49574,0.078237383
0.49677685,0.078104724
0.49779007,0.077959058
0.49877343,0.077845839
0.49972975,0.077772207
0.5007658,0.077607789
0.501728,0.077447101
0.50275862,0.077365656
0.50374991,0.077255829
0.50475687,0.077093205
0.50575638,0.077020199
0.50677586,0.076884006
0.50778484,0.076746024
0.50877279,0.076622082
0.509808,0.076531495
0.51075727,0.076372886
0.51176512,0.076277391
0.51272982,0.076198153
0.51375669,0.076069372
0.51474261,0.075920381
0.51577491,0.075851458
0.51674491,0.075745714
0.51776356,0.075600117
0.51882446,0.07552932
0.5198198,0.075428634
0.52078575,0.07528788
0.52181304,0.07519854
0.52282882,0.075083247
0.52373624,0.074945681
0.5247618,0.074818971
0.52575761,0.074735171
0.52681148,0.074676207
0.52776337,0.074511302
0.5288105,0.074444242
0.52981925,0.074367014
0.53079009,0.074193661
0.53180546,0.074127229
0.5327431,0.074052705
0.53377753,0.073951529
0.53478032,0.073861911
0.53576785,0.073743163
0.53680718,0.073650853
0.53776276,0.07354255
0.53877312,0.073455566
0.53978169,0.07341065
0.54077619,0.073294602
0.54177082,0.073195018
0.54276329,0.073151146
0.54375058,0.073039517
0.54480428,0.07291913
0.54578507,0.07284917
0.5467723,0.072765539
0.54781163,0.072688339
0.54880023,0.072633358
0.54979318,0.072541403
0.55079913,0.072441713
0.55180854,0.072360391
0.55278844,0.072292894
0.55376619,0.072164553
0.55476129,0.07209575
0.55575287,0.072052991
0.55676711,0.071960388
0.55773836,0.071844484
0.55879539,0.071791166
0.55978703,0.071751952
0.5607813,0.071616737
0.56181926,0.071568264
0.56275243,0.071529561
0.56377,0.071461268
0.56480545,0.071325251
0.56581008,0.071307676
0.56675702,0.071216367
0.56778383,0.071079781
0.56880224,0.071059668
0.56976533,0.070997517
0.5708012,0.07088654
0.57179749,0.070827651
0.57283944,0.070789451
0.57383239,0.070688019
0.57478672,0.070595416
0.57581311,0.070587458
0.5768168,0.07049854
0.57780367,0.070433288
0.57885039,0.07040413
0.57981122,0.070320646
0.58082062,0.070236362
0.58178794,0.070190056
0.58281076,0.070110472
0.58378726,0.070020912
0.58479273,0.069957533
0.58580035,0.069951743
0.58680332,0.069837724
0.58775336,0.069769578
0.58878523,0.069750696
0.58981591,0.069665544
0.59077805,0.069569393
0.59176534,0.069561073
0.59278208,0.069529676
0.59379196,0.069398288
0.59478396,0.069366025
0.5957917,0.069306556
0.5968188,0.069280366
0.59783304,0.069183273
0.59881812,0.069154337
0.59980583,0.069102752
0.60080701,0.069032067
0.6017527,0.068968259
0.60281712,0.068925939
0.60378623,0.068811486
0.60482335,0.068773576
0.6058138,0.068743475
0.60681272,0.068721128
0.60776752,0.068614624
0.60882151,0.068595817
0.60985565,0.068566521
0.61080396,0.068455684
0.61181813,0.068417845
0.61284578,0.068417268
0.61382395,0.068355047
0.61479342,0.068257525
0.61583018,0.068286025
0.61674803,0.068187205
0.61782205,0.068100094
0.61882102,0.068068988
0.6197654,0.068038168
0.62078744,0.06795598
0.62181413,0.067916262
0.62281793,0.067892964
0.62379652,0.067819244
0.62480336,0.067795517
0.62578499,0.067718832
0.62679392,0.067714053
0.62780118,0.067613634
0.62881708,0.067575655
0.62981433,0.067571313
0.63083243,0.067461561
0.63180935,0.067438049
0.63282698,0.06738379
0.63380647,0.067351884
0.63478285,0.067279972
0.6357767,0.067262316
0.63684374,0.06718223
0.63781154,0.067097508
0.6388045,0.067065535
0.6398164,0.067034429
0.64078254,0.066985085
0.64177197,0.066906809
0.64280564,0.066912233
0.64378691,0.066846036
0.64480191,0.066781645
0.64582086,0.066760229
0.646842,0.066705609
0.6478253,0.066622543
0.64881116,0.066592162
0.64985293,0.066543378
0.6508525,0.066457778
0.65184492,0.06640774
0.65278608,0.06641577
0.65385938,0.066362342
0.6548025,0.066307192
0.65579408,0.066281246
0.65677911,0.066175153
0.65785331,0.066128655
0.65883172,0.066127611
0.65976685,0.066052255
0.66080874,0.065964296
0.66178888,0.065931842
0.66281825,0.06589489
0.66385841,0.065832331
0.6648376,0.065768046
0.66583335,0.065791847
0.66681379,0.065732336
0.66783327,0.065621611
0.66881156,0.06561262
0.66984963,0.065548607
0.67084593,0.065515319
0.67184281,0.065410754
0.67282254,0.06541616
0.67382866,0.065327576
0.6748631,0.065247163
0.67581075,0.065218582
0.67686379,0.0652053
0.67778164,0.065072223
0.67879438,0.065045644
0.67982167,0.065012298
0.6808055,0.064921777
0.68183112,0.064891883
0.68281567,0.064851883
0.68384302,0.064794312
0.68481016,0.064714524
0.68584621,0.06470497
0.68682539,0.064620132
0.68781209,0.064561584
0.68882531,0.064507886
0.68982649,0.064472804
0.69077706,0.064368923
0.69182473,0.064373425
0.69279683,0.064316128
0.69380426,0.064252532
0.69482744,0.064167894
0.69578671,0.064130048
0.69682813,0.064094959
0.69784141,0.064010257
0.69880396,0.063955314
0.69987237,0.063938565
0.70080423,0.063821888
0.70184654,0.063789161
0.70285344,0.063771235
0.70383847,0.063682034
0.70483631,0.063632071
0.70584297,0.063608609
0.70684952,0.06352772
0.70782375,0.063451323
0.70886725,0.063431247
0.70981079,0.063401629
0.71081609,0.063277481
0.71183759,0.063246618
0.71284127,0.06322842
0.71384162,0.063123994
0.71482372,0.06306261
0.71582073,0.06304912
0.71686429,0.062998948
0.71786296,0.062897356
0.71879363,0.062871137
0.71984583,0.062802344
0.72081226,0.062712391
0.72181088,0.062711136
0.72283524,0.062649548
0.72384351,0.062525264
0.72482687,0.062516612
0.72584748,0.062478487
0.72684419,0.06238264
0.72788972,0.062324444
0.72880214,0.062250813
0.72985727,0.062251433
0.73086387,0.062131441
0.73185384,0.062104245
0.73283261,0.062078708
0.73389304,0.062016291
0.73486441,0.061897815
0.73583204,0.061888403
0.73685431,0.061838581
0.73787582,0.061745159
0.73882312,0.061675196
0.73983175,0.061668967
0.74085665,0.061568834
0.74180138,0.061515546
0.74282831,0.061513816
0.74384189,0.061439634
0.74484104,0.061354029
0.74581736,0.06132718
0.74683595,0.061257012
0.74784577,0.06119473
0.74884576,0.06120068
0.74985147,0.061133278
0.75087672,0.061030652
0.75189698,0.061046361
0.75289279,0.061007402
0.75384784,0.060917923
0.75485778,0.060861316
0.75589043,0.060813311
0.75687212,0.060776703
0.75788885,0.060709278
0.75887442,0.060661239
0.75988865,0.060647709
0.76084858,0.060595331
0.76186538,0.060526237
0.76292896,0.060539478
0.76384032,0.060455629
0.76489526,0.060417575
0.76586092,0.060402742
0.76687384,0.060328946
0.7678836,0.060283008
0.76885486,0.060226942
0.7698434,0.060195902
0.77090621,0.060152278
0.77187532,0.060096643
0.77288336,0.060091865
0.77382815,0.060000637
0.77487403,0.059951876
0.77591157,0.05995332
0.77682084,0.05988756
0.77783543,0.0598189
0.77886564,0.059811087
0.77989161,0.059810728
0.78088486,0.059714652
0.78188819,0.059684772
0.78287113,0.059669434
0.78387755,0.059561779
0.7848314,0.059517865
0.78586507,0.059529586
0.78683037,0.059453909
0.78787094,0.059391549
0.78887033,0.059391547
0.78988147,0.059366731
0.79087442,0.059311172
0.79187816,0.059273044
0.79289061,0.059247868
0.79386878,0.059129507
0.79485834,0.059095359
0.79584771,0.059082626
0.79687101,0.059057088
0.79786438,0.058959346
0.79890066,0.05896998
0.79955333,0.0589466
0.79966789,0.058980983
0.79974419,0.058910953
0.79932386,0.058383696
0.79823846,0.057966549
0.79724181,0.057844135
0.79629666,0.057729051
0.79527551,0.057590997
0.7942934,0.057517776
0.7932561,0.057461728
0.7923122,0.057406709
0.79127294,0.057282492
0.79024929,0.057277235
0.78926671,0.057208587
0.78827262,0.057117864
0.78728056,0.057144437
0.78625071,0.057107276
0.78522217,0.056990187
0.78427285,0.056980152
0.78325713,0.057002438
0.7822721,0.0568841
0.7812652,0.05684687
0.7802304,0.056874206
0.77921468,0.05681068
0.77824712,0.056755181
0.77729321,0.056794069
0.77627546,0.056730751
0.77529454,0.056669785
0.77429545,0.056674281
0.77331126,0.056635461
0.77225864,0.056565568
0.77125037,0.056550202
0.77026743,0.056549167
0.76928663,0.056521764
0.76821816,0.056447783
0.76726311,0.056492562
0.76624823,0.056468683
0.76526314,0.056390625
0.76426989,0.056383425
0.76325262,0.056378099
0.76227087,0.056373603
0.7612589,0.056293191
0.76027632,0.056332911
0.75924486,0.056283779
0.75824004,0.056226203
0.75724417,0.056237692
0.75624096,0.05619084
0.75527382,0.056153683
0.75425977,0.056168707
0.75332659,0.05617652
0.75225782,0.056117629
0.75125492,0.056080012
0.75027412,0.05608898
0.74925953,0.056057943
0.74828917,0.056006217
0.74719995,0.056057584
0.74625731,0.055994932
0.7452752,0.055934664
0.74424112,0.055982775
0.74322522,0.055981905
0.74225301,0.05591795
0.74125367,0.055897984
0.7402404,0.055899358
0.73920453,0.055865647
0.73829049,0.055811747
0.73725951,0.055801475
0.73626697,0.055824915
0.73518169,0.055733395
0.73426247,0.055791056
0.73323005,0.055717983
0.73223621,0.055670309
0.73128188,0.055642238
0.73026997,0.055678049
0.72925097,0.05565186
0.72825241,0.055592393
0.72729725,0.055622704
0.72624654,0.055596589
0.72524631,0.055502176
0.72422826,0.055553974
0.72322971,0.055545944
0.72220081,0.055495953
0.72121739,0.055473815
0.72023046,0.055459853
0.71925324,0.055440101
0.71821827,0.055381573
0.71721959,0.055426428
0.71624446,0.055319643
0.71522814,0.055299096
0.71427733,0.055288535
0.71318513,0.05533064
0.71225071,0.055282675
0.7112534,0.055237672
0.71024525,0.055257571
0.70920599,0.055175816
0.70818704,0.055137258
0.70723009,0.055169304
0.70620471,0.05513581
0.70523691,0.055066937
0.70423049,0.055105279
0.70320898,0.055058256
0.70222259,0.055027723
0.70124179,0.055017088
0.70024538,0.054979108
0.69921643,0.054971294
0.69826245,0.054912329
0.69720113,0.054917396
0.69620782,0.054872973
0.69522136,0.054815963
0.69424707,0.054819799
0.69321078,0.054804458
0.69220531,0.054736598
0.69124007,0.054701945
0.69022858,0.054691236
0.68927032,0.054626632
0.68820751,0.054606014
0.68725073,0.054601959
0.68626595,0.054564343
0.68521875,0.054516662
0.68417823,0.054476079
0.68321037,0.054495902
0.68220097,0.054405684
0.68118256,0.054377829
0.68017089,0.054383037
0.67923433,0.05430932
0.67818803,0.054277704
0.6772173,0.054268658
0.67617059,0.054220692
0.6752128,0.054132286
0.67423588,0.054178514
0.67318708,0.054135904
0.67220098,0.054074769
0.67119598,0.054039388
0.67021871,0.054008283
0.66926605,0.053988024
0.66822934,0.053913071
0.66721344,0.053928191
0.66622573,0.053855992
0.66518205,0.053815189
0.66420084,0.053764832
0.66326511,0.053781332
0.66218764,0.053686915
0.66125202,0.053649006
0.66019142,0.053643652
0.65920156,0.053584474
0.65821981,0.053553074
0.65722084,0.05352848
0.65621006,0.053500117
0.65519291,0.053426541
0.65424085,0.053409467
0.65320796,0.053402592
0.65219814,0.05329342
0.65123075,0.053280253
0.65025133,0.053251748
0.64925271,0.05320559
0.64815217,0.053137881
0.64721727,0.053132138
0.64621156,0.053041968
0.64521539,0.053017679
0.6442436,0.052992348
0.64318603,0.052987299
0.64224494,0.052917613
0.64114755,0.052831801
0.64019078,0.052833949
0.63921279,0.052745856
0.63817471,0.052692014
0.63724494,0.052697689
0.63620639,0.052621569
0.63519478,0.052559979
0.63419402,0.052536522
0.63314766,0.052545242
0.63218427,0.052439362
0.63123649,0.052419639
0.6302312,0.052387528
0.62914497,0.052348223
0.62819564,0.052286078
0.62716794,0.052242206
0.62615556,0.052185461
0.62522322,0.052134182
0.62419635,0.052063525
0.62318599,0.052093766
0.62219721,0.051986091
0.62115616,0.051951765
0.62018114,0.051971767
0.61917752,0.051911148
0.61821371,0.051813711
0.61715692,0.051787137
0.6161902,0.051773711
0.61523378,0.051690598
0.61419898,0.051678143
0.61325133,0.051641122
0.61221528,0.05155303
0.61122698,0.051526317
0.61019051,0.051485068
0.60920757,0.051434071
0.60820681,0.051357878
0.60722053,0.05134667
0.60620731,0.051332897
0.60521281,0.051219266
0.60420042,0.051225286
0.60323536,0.051164046
0.60222256,0.051108892
0.60123414,0.051066265
0.60020685,0.051038998
0.59919405,0.050947378
0.59821653,0.050910631
0.59722239,0.050895405
0.59622413,0.050844822
0.59526646,0.050754443
0.59421015,0.050735621
0.59318697,0.05071652
0.59216464,0.050632372
0.59116095,0.050539713
0.59020424,0.050536527
0.5892362,0.05048975
0.58820641,0.05043418
0.58720273,0.050376326
0.5862028,0.05037252
0.58517134,0.050256678
0.58413905,0.050288095
0.58321452,0.050256815
0.58218145,0.05012983
0.5811525,0.050121319
0.5801633,0.050080215
0.57919079,0.050016962
0.57816756,0.049971499
0.57718754,0.049953438
0.57619798,0.049897523
0.57517606,0.049820983
0.5741927,0.04979891
0.57321101,0.04975552
0.5722211,0.049670265
0.57117635,0.049664522
0.57023364,0.049618086
0.56916857,0.049540165
0.56818759,0.049503976
0.56717318,0.049460584
0.56619233,0.049419065
0.56518829,0.049375327
0.56417215,0.049358929
0.56319594,0.049277686
0.56218928,0.049232289
0.5611918,0.049181286
0.56019318,0.049152984
0.55918407,0.049098245
0.55817825,0.049039492
0.55720699,0.049005378
0.55615729,0.048941298
0.55517226,0.048911956
0.5541777,0.048877425
0.55315953,0.048868913
0.55216169,0.048786145
0.55114883,0.048737429
0.5501684,0.04871909
0.54917842,0.048666567
0.54815859,0.048604631
0.54719388,0.048585741
0.54619277,0.048530725
0.54520893,0.048446023
0.54414058,0.048444499
0.54314899,0.048405608
0.54215777,0.048309416
0.5411852,0.048276894
0.54015005,0.048286144
0.53916752,0.048186521
0.53818458,0.048135733
0.53718561,0.048106431
0.53618968,0.048079446
0.53514987,0.048016503
0.53414398,0.04799328
0.53318703,0.047987203
0.5321421,0.047897204
0.53119636,0.04782189
0.53020257,0.047840556
0.5291754,0.047758515
0.52818161,0.047710189
0.52716959,0.047714818
0.5261507,0.047620694
0.52516866,0.047564841
0.52414531,0.047534022
0.52318579,0.04755529
0.52213824,0.04749633
0.52122289,0.047454081
0.52014846,0.047427093
0.5191282,0.047339844
0.51816869,0.047317125
0.51716709,0.047299546
0.5161438,0.047261202
0.51516038,0.047163247
0.51413238,0.047167656
0.51311386,0.047157024
0.51217252,0.047017322
0.51113838,0.047002996
0.51016068,0.047004154
0.50916725,0.046958141
0.50816655,0.046886734
0.50713289,0.046851719
0.50618458,0.046809829
0.50518346,0.04674855
0.50418097,0.046751156
0.50313687,0.046716068
0.50215483,0.046672008
0.50117058,0.046621148
0.5001685,0.046644371
0.49910015,0.046541206
0.49815276,0.046471896
0.49717021,0.046489115
0.49616733,0.046424727
0.4951905,0.046382329
0.49416155,0.046372204
0.4931725,0.046339429
0.49215832,0.046275042
0.49113634,0.046219911
0.49018767,0.046230836
0.48916739,0.046208914
0.48812896,0.046119857
0.48713559,0.046126799
0.48608762,0.046029061
0.48514026,0.046014228
0.48414603,0.045995925
0.48315999,0.045958232
0.48216057,0.045863747
0.48116028,0.045872213
0.48014441,0.045867652
0.47911239,0.045774758
0.47813731,0.045738589
0.47719726,0.045751466
0.47611761,0.045689248
0.47513252,0.045650034
0.47414732,0.045605831
0.47310197,0.045614222
0.47214246,0.045496515
0.4711391,0.045500567
0.47015354,0.045523138
0.46912676,0.045424675
0.46815771,0.045375841
0.46716908,0.045394941
0.46614891,0.045339665
0.46516159,0.045256324
0.46414441,0.045301685
0.46310291,0.045257118
0.46217546,0.045188246
0.46114781,0.04514549
0.4601185,0.045140783
0.45914811,0.04508703
0.45814091,0.045016132
0.45712367,0.045067423
0.45613852,0.045028284
0.45217389,0.044588597
0.44812226,0.044205559
0.44716015,0.044206802
0.44613168,0.044158952
0.44510579,0.044090889
0.4441289,0.044078722
0.4431169,0.044059201
0.44212961,0.043996286
0.44110891,0.04395695
0.44004881,0.043970898
0.43908578,0.043904022
0.43807206,0.043854084
0.4370904,0.043864574
0.43611395,0.043821894
0.43511668,0.043747816
0.43412036,0.043757088
0.43309057,0.043715806
0.43208688,0.043647155
0.43110272,0.043622009
0.43008408,0.043632437
0.42905137,0.043541603
0.42811778,0.043520983
0.42708632,0.04350468
0.42607766,0.043465107
0.42506906,0.043408897
0.4241077,0.043392361
0.42308909,0.043372791
0.42209953,0.043283277
0.42108342,0.043262833
0.42012,0.043258243
0.41910383,0.043191708
0.41806823,0.04314077
0.41709608,0.043143849
0.41611731,0.043088377
0.41508165,0.043039173
0.41411206,0.043036844
0.41309714,0.042991626
0.41208893,0.042922364
0.41108069,0.042888549
0.41011685,0.042885347
0.40908039,0.042803478
0.40810493,0.042775248
0.40713239,0.042765251
0.40609881,0.042697564
0.40509471,0.042639866
0.40407279,0.042631779
0.40308446,0.042597881
0.40206382,0.0425146
0.40113938,0.042502589
0.40008464,0.04248751
0.3990719,0.042423489
0.39807484,0.042355799
0.39706412,0.042346158
0.39612556,0.042292837
0.39508495,0.042218942
0.39411697,0.042203264
0.39310831,0.042165974
0.39208558,0.042085054
0.39112419,0.042044896
0.39014417,0.042035802
0.38913304,0.041951618
0.38803816,0.041893074
0.38707635,0.041883161
0.38608554,0.041813883
0.38510966,0.041739384
0.38400891,0.041694408
0.38305873,0.04166554
0.3820928,0.041572933
0.38112813,0.04154233
0.38011447,0.041515587
0.37906146,0.041413328
0.37812042,0.041346199
0.37711009,0.041319323
0.37610269,0.04125469
0.37513804,0.041173943
0.37412402,0.041123773
0.37308049,0.04107001
0.37210047,0.040970757
0.3711192,0.040917017
0.37008607,0.040870943
0.36910066,0.040763265
0.36808243,0.040687322
0.36708459,0.040650365
0.36610043,0.040558866
0.36506566,0.040449306
0.3641088,0.040410246
0.36304459,0.04032191
0.36207786,0.040211433
0.36103231,0.040135546
0.36008337,0.040073228
0.35909382,0.039957847
0.3580296,0.039852923
0.3570703,0.039807582
0.35612297,0.039705655
0.35508284,0.039558274
0.35412565,0.039480304
0.35310951,0.039400123
0.35206601,0.039253032
0.35108599,0.039154576
0.35005534,0.039062955
0.34905833,0.038896824
0.34805924,0.038783514
0.34705845,0.038698007
0.34613314,0.038553549
0.34505442,0.038391023
0.34410882,0.038292118
0.3430703,0.038160038
0.34211141,0.037980815
0.34107786,0.037858801
0.34011284,0.037719935
0.33913815,0.037530757
0.33807394,0.037359513
0.33709219,0.037220696
0.33612379,0.037032488
0.33507162,0.036829393
0.33407831,0.036689092
0.33306012,0.036513665
0.33207056,0.036278907
0.33104822,0.036105856
0.33010924,0.035926261
0.32905707,0.035688926
0.3280994,0.035461542
0.32711068,0.03529231
0.3260912,0.035045641
0.32509348,0.034786659
0.32405332,0.034569412
0.32310545,0.034330643
0.32207829,0.034048824
0.32108146,0.033808809
0.32014447,0.033565097
0.31906137,0.033260601
0.3180823,0.032955977
0.31712231,0.032706777
0.31615281,0.032393586
0.31507099,0.032042416
0.31407288,0.031755868
0.31309471,0.031453392
0.31212521,0.031052797
0.31109196,0.030745638
0.31005478,0.030418146
0.30909479,0.030018888
0.30803728,0.029639463
0.30709511,0.02929178
0.30603278,0.028895682
0.30510184,0.02846767
0.30402786,0.028093062
0.30305049,0.027695743
0.30206543,0.027210424
0.30110934,0.026785709
0.30012769,0.026355981
0.29906535,0.025844932
0.29807636,0.025367536
0.2971012,0.024927254
0.29606187,0.024405932
0.29507852,0.023866316
0.29407126,0.023375081
0.29307574,0.02286814
0.29204163,0.022288312
0.29107469,0.021738946
0.29006961,0.021212243
0.28910664,0.020603342
0.28806427,0.01997941
0.28712857,0.019422529
0.28603682,0.018742681
0.28509068,0.018106574
0.28406352,0.017498477
0.2830953,0.016863404
0.2820898,0.016153349
0.28104225,0.015489328
0.28007793,0.014842943
0.27906331,0.014108472
0.27807778,0.01337568
0.27706966,0.012685342
0.2760191,0.011911426
0.27504131,0.011136454
0.27405626,0.010406634
0.27309319,0.00962921
0.27209765,0.008795246
0.27105448,0.008005452
0.27006587,0.007226191
0.26907292,0.006378744
0.26804835,0.00549954
0.26711136,0.004714477
0.26607466,0.003853149
0.26511207,0.002945365
0.26408833,0.002089425
0.26312229,0.001195212
0.26210642,0.000248417
0.26109615,-0.000669696
0.26008585,-0.001592128
0.25905865,-0.002577776
0.25807875,-0.003546772
0.25709191,-0.004477269
0.25604433,-0.005480966
0.25504753,-0.006485052
0.25410575,-0.007440347
0.25306338,-0.008426559
0.25211033,-0.009484211
0.25105673,-0.010494975
0.25007206,-0.011509963
0.24906482,-0.012573771
0.24805626,-0.013654831
0.24706769,-0.014664719
0.24608344,-0.015755306
0.24504237,-0.01685072
0.24409322,-0.017902548
0.24309555,-0.018993535
0.24210955,-0.020129246
0.24103686,-0.021210394
0.24005,-0.022295709
0.23905014,-0.02341382
0.23810448,-0.024566633
0.23706342,-0.025654036
0.23606052,-0.026805466
0.23505719,-0.028026355
0.23405603,-0.029124973
0.23303448,-0.030258716
0.23204936,-0.03145714
0.23101828,-0.03257967
0.2300752,-0.033712582
0.22903804,-0.034879928
0.2281145,-0.036046886
0.22703226,-0.037173638
0.22603717,-0.038332228
0.22509281,-0.039541719
0.22406693,-0.040678867
0.22307096,-0.041820167
0.22207715,-0.04305323
0.22105822,-0.044195841
0.22006325,-0.045309075
0.21907412,-0.046497315
0.21809612,-0.04766787
0.21711697,-0.048793614
0.21610582,-0.049933079
0.21512328,-0.051120848
0.2140881,-0.052259857
0.21312131,-0.053372468
0.21206705,-0.054550676
0.21108788,-0.05568183
0.21004146,-0.056769931
0.20906432,-0.057931204
0.20807768,-0.05907358
0.20707524,-0.060133626
0.20608526,-0.061250322
0.20507661,-0.062371368
0.20404308,-0.063427343
0.20312943,-0.06447276
0.20209008,-0.065571904
0.20109595,-0.066620635
0.20008314,-0.067641711
0.19910975,-0.068681598
0.19809945,-0.069743718
0.19708,-0.070728583
0.19609293,-0.071728529
0.19511248,-0.072776673
0.19405736,-0.073707714
0.19305331,-0.074640153
0.19204713,-0.075628371
0.19109985,-0.076553444
0.19009329,-0.077412331
0.18911159,-0.07834334
0.18810336,-0.079256629
0.18708643,-0.080073898
0.18607403,-0.080936931
0.18508862,-0.081779461
0.18409406,-0.082598676
0.1830539,-0.083377049
0.18209088,-0.084194792
0.18107019,-0.084888284
0.18007855,-0.085568949
0.17907156,-0.086322256
0.17808655,-0.086988843
0.17709947,-0.087583581
0.17609164,-0.088216028
0.17508923,-0.088855888
0.17410877,-0.089395484
0.17308354,-0.089919217
0.17206742,-0.090478606
0.17107828,-0.090978534
0.17010236,-0.091409237
0.16908419,-0.091899181
0.16807847,-0.092298733
0.16709344,-0.092645643
0.16609806,-0.093004009
0.16506782,-0.093345265
0.16411309,-0.093606752
0.16309451,-0.093850942
0.16206263,-0.094129307
0.16105522,-0.094318869
0.16010092,-0.094461089
0.15907568,-0.094643356
0.15807615,-0.094813794
0.15703723,-0.094842684
0.15610489,-0.094889959
0.15505104,-0.094942579
0.15410833,-0.094894505
0.1530661,-0.094846355
0.15205286,-0.094806909
0.15103967,-0.09468238
0.15005673,-0.09453258
0.14909826,-0.094399658
0.14804068,-0.094207399
0.14706148,-0.093964355
0.14603914,-0.093736832
0.14507155,-0.093514374
0.14407203,-0.093177793
0.14305508,-0.092850586
0.1420991,-0.09253598
0.14105687,-0.092155993
0.14005277,-0.091735236
0.13908643,-0.091343903
0.13808815,-0.090895233
0.13706496,-0.090425897
0.13607582,-0.0899743
0.13507216,-0.089496135
0.13405895,-0.088952539
0.13306813,-0.088457736
0.13205494,-0.08795196
0.13104835,-0.087393277
0.13004136,-0.08679541
0.12908123,-0.086251964
0.12809125,-0.085675613
0.12703034,-0.085029125
0.12608515,-0.084456144
0.12503171,-0.083880292
0.12406079,-0.083227075
0.12308574,-0.082594651
0.12208913,-0.082018408
0.12104771,-0.081383398
0.12009422,-0.080734046
0.11908102,-0.080143589
0.11806946,-0.079529067
0.11703426,-0.078861683
0.11607622,-0.078238474
0.11506176,-0.077657768
0.11401497,-0.076986922
0.11308095,-0.076349423
0.11204964,-0.075765707
0.11105498,-0.075131776
0.11008244,-0.074509406
0.10900409,-0.073963077
0.1080671,-0.073353901
0.10707851,-0.072750477
0.10600841,-0.07219298
0.10503673,-0.071605915
0.10405377,-0.071031564
0.10301228,-0.070442425
0.10204711,-0.06992418
0.10108019,-0.069336726
0.10007123,-0.068770571
0.099071778,-0.068284482
0.098076262,-0.067732174
0.097049519,-0.06718546
0.096036203,-0.066698319
0.095043719,-0.066202174
0.094069861,-0.065652342
0.093040951,-0.065175811
0.092051499,-0.06471098
0.091041654,-0.06419531
0.090017952,-0.063702303
0.089072287,-0.063274594
0.088060699,-0.062811192
0.087029196,-0.062323125
0.086043641,-0.061900447
0.0850273,-0.061481592
0.08407557,-0.061027385
0.083088711,-0.060587047
0.082024246,-0.060223125
0.081003129,-0.059795471
0.080038384,-0.059355189
0.079028554,-0.05898959
0.078066409,-0.058600241
0.077006713,-0.058185373
0.076051071,-0.057827962
0.075043835,-0.057478788
0.074047878,-0.057088802
0.073032841,-0.056716029
0.072041646,-0.056390365
0.071023569,-0.056036006
0.070040621,-0.055666915
0.069039017,-0.055375354
0.068085544,-0.055036396
0.067074403,-0.054677652
0.066067606,-0.054398982
0.065062538,-0.05408202
0.064073086,-0.053760342
0.063063242,-0.053443657
0.062085073,-0.05317771
0.061080433,-0.052870043
0.06010095,-0.052549308
0.059051652,-0.052300442
0.058044851,-0.052015954
0.057051491,-0.051720739
0.056055095,-0.05148686
0.055029221,-0.051233764
0.054035854,-0.050940513
0.053065043,-0.050683389
0.052056942,-0.050460216
0.051073123,-0.050184865
0.050088871,-0.049915959
0.049020499,-0.049726775
0.048010658,-0.049496119
0.047064129,-0.049204656
0.046046052,-0.049011004
0.045060493,-0.048800246
0.04401077,-0.048549923
0.04301611,-0.048343689
0.042043127,-0.048155495
0.04106104,-0.047932966
0.040058579,-0.047693718
0.039020557,-0.047525758
0.038083561,-0.047320637
0.037020829,-0.047082602
0.036025733,-0.04691645
0.035053186,-0.04673241
0.034055486,-0.046504427
0.033019204,-0.046302663
0.032070506,-0.046164004
0.031092316,-0.045948614
0.030044328,-0.045750018
0.028999368,-0.045618518
0.028057607,-0.045423829
0.027062947,-0.04522505
0.026023194,-0.045064512
0.025061484,-0.044918993
0.024044709,-0.044714376
0.023039211,-0.044543873
0.022091812,-0.04440784
0.02106116,-0.044215086
0.020035716,-0.044043238
0.019054929,-0.043941989
0.018039022,-0.043771692
0.017020514,-0.043567875
0.016061407,-0.043444306
0.015056774,-0.043304195
0.014059947,-0.043122926
0.013050978,-0.042969646
0.01206152,-0.04284963
0.011060788,-0.042678689
0.010057889,-0.042506742
0.009049786,-0.042400665
0.008037782,-0.042265944
0.007056564,-0.042076834
0.006047235,-0.041958904
0.00504149,-0.041847053
0.003948234,-0.041676459
0.002984377,-0.041523792
0.001967848,-0.041424205
0.000914822,-0.041266785
-7.06011E-05,-0.041092656
-0.001061417,-0.041000922
-0.00200661,-0.040863166
-0.003058393,-0.040687776
-0.004082802,-0.040584783
-0.005043341,-0.040476802
-0.006081023,-0.040299886
-0.00705276,-0.040176696
-0.008046065,-0.040085016
-0.009019044,-0.039894868
-0.010025207,-0.039776843
-0.011057494,-0.039694633
-0.012039186,-0.039547108
-0.013034564,-0.039385203
-0.014022891,-0.0393073
-0.015063475,-0.03916446
-0.016066318,-0.039018881
-0.017034736,-0.038896367
-0.018058317,-0.038808748
-0.019042496,-0.038667056
-0.020073542,-0.038518362
-0.021067262,-0.038436151
-0.022100378,-0.038319961
-0.023059258,-0.038156365
-0.024064176,-0.038075119
-0.025037155,-0.037945262
-0.02602507,-0.037796308
-0.027056117,-0.037693742
-0.02805564,-0.0375817
-0.029099545,-0.037446699
-0.030060496,-0.037321227
-0.031071631,-0.037230376
-0.032077797,-0.037106847
-0.033021744,-0.036969792
-0.034095094,-0.036853597
-0.035073474,-0.036777175
-0.036066357,-0.036630356
-0.03706298,-0.036490744
-0.038022272,-0.036428626
-0.039018482,-0.036279749
-0.040044133,-0.036149134
-0.041056104,-0.036077011
-0.042073041,-0.03596238
-0.043043122,-0.035814163
-0.04401071,-0.035730868
-0.045056272,-0.035646185
-0.046036724,-0.035489361
-0.047044955,-0.035396262
-0.04808595,-0.035317506
-0.049060181,-0.035190296
-0.050080027,-0.03505745
-0.05109822,-0.034964968
-0.052067049,-0.034861286
-0.05302012,-0.034731343
-0.053996425,-0.034629971
-0.055046137,-0.03455752
-0.05603902,-0.034411601
-0.057056382,-0.03431208
-0.058030192,-0.034235485
-0.059016027,-0.034097772
-0.060102232,-0.033981991
-0.061046183,-0.0339165
-0.062075153,-0.033811888
-0.063053943,-0.033672884
-0.064031482,-0.03358152
-0.065053411,-0.033507072
-0.066049621,-0.033357185
-0.067047484,-0.033264766
-0.068023786,-0.03321314
-0.069118701,-0.033090506
-0.070056014,-0.032966338
-0.071038947,-0.032896531
-0.072077878,-0.032807362
-0.073104359,-0.032655175
-0.074078172,-0.032592923
-0.075067744,-0.032512915
-0.076078884,-0.032378543
-0.077092916,-0.032284669
-0.078101978,-0.032219999
-0.07909362,-0.032093611
-0.080101028,-0.031985268
-0.081053697,-0.031925776
-0.08202751,-0.031815513
-0.083071403,-0.031707607
-0.084090419,-0.031620167
-0.085072108,-0.031556733
-0.086116008,-0.031430477
-0.087097697,-0.031332849
-0.088064469,-0.031274553
-0.089078091,-0.031151653
-0.090031162,-0.031042255
-0.091059305,-0.031018196
-0.092057176,-0.030893511
-0.093116425,-0.030779682
-0.094042532,-0.030720509
-0.095069431,-0.030634005
-0.096037842,-0.03051294
-0.097032398,-0.030426421
-0.098088756,-0.030384283
-0.099081218,-0.030288176
-0.10010812,-0.030163485
-0.10105208,-0.030112737
-0.10208127,-0.030012175
-0.10310585,-0.02990764
-0.10409879,-0.029851089
-0.10510385,-0.029777817
-0.106092,-0.029671467
-0.10707972,-0.029582276
-0.10807006,-0.029527358
-0.10908423,-0.029422409
-0.11011705,-0.02932853
-0.11109132,-0.029285722
-0.11207472,-0.029196233
-0.11311448,-0.029080123
-0.11408658,-0.029034566
-0.11504959,-0.028966309
-0.11610279,-0.028855928
-0.11706405,-0.028779157
-0.1180934,-0.028734256
-0.11905815,-0.02860962
-0.12008619,-0.028536748
-0.12107349,-0.028495217
-0.1220352,-0.02840204
-0.12308796,-0.028302272
-0.12410561,-0.028257104
-0.12512195,-0.028207669
-0.12610359,-0.028092552
-0.12710086,-0.028020851
-0.12806778,-0.027995396
-0.12910578,-0.027880892
-0.1301074,-0.027793045
-0.13107213,-0.027752697
-0.13210148,-0.027685003
-0.13310525,-0.027584013
-0.13408214,-0.027543098
-0.13504168,-0.027482878
-0.13610658,-0.027382466
-0.13710861,-0.027325451
-0.13811585,-0.027277411
-0.1391452,-0.02718837
-0.14010692,-0.027098253
-0.14110416,-0.027065419
-0.14208321,-0.026993791
-0.14307094,-0.026895735
-0.14407471,-0.02685313
-0.14508672,-0.026806407
-0.1460675,-0.026699429
-0.14706822,-0.026636812
-0.14811839,-0.026611162
-0.14908659,-0.026512826
-0.15008169,-0.026440764
-0.15111452,-0.026425218
-0.15207319,-0.026354508
-0.15307824,-0.026256396
-0.15411064,-0.026228288
-0.15512264,-0.026186115
-0.15609391,-0.026074881
-0.15710545,-0.026032122
-0.15812136,-0.026006044
-0.15907396,-0.025910175
-0.1600721,-0.025835423
-0.16108279,-0.025822597
-0.16212387,-0.025755438
-0.16310856,-0.025666652
-0.16411926,-0.02564992
-0.16508964,-0.02558277
-0.16608602,-0.025498823
-0.16708937,-0.02543659
-0.16807623,-0.025424444
-0.1691073,-0.025339672
-0.17012756,-0.02527687
-0.1710988,-0.025254408
-0.17211385,-0.025194482
-0.17305994,-0.025106471
-0.174078,-0.025060307
-0.17510606,-0.025034872
-0.1761068,-0.024954757
-0.17707717,-0.024906096
-0.17809959,-0.024895405
-0.17905827,-0.024805223
-0.18010972,-0.024748192
-0.18109311,-0.024731807
-0.18207085,-0.024672765
-0.18311842,-0.024590106
-0.18409616,-0.024578235
-0.18515413,-0.024537097
-0.18614142,-0.024449423
-0.18712568,-0.02441463
-0.18810777,-0.024397036
-0.18913494,-0.024312408
-0.19008407,-0.024267313
-0.1911004,-0.0242514
-0.19208381,-0.024206349
-0.19307543,-0.024116571
-0.19410434,-0.024098145
-0.19514844,-0.024073695
-0.19613703,-0.023988208
-0.19711608,-0.023958297
-0.19810639,-0.023943635
-0.1991054,-0.023867824
-0.20008922,-0.023812862
-0.20107913,-0.023797996
-0.2021592,-0.023744668
-0.2031157,-0.023680666
-0.20408131,-0.023658594
-0.20509505,-0.023624394
-0.20611443,-0.023565938
-0.20709348,-0.023516684
-0.20811693,-0.023510342
-0.20910858,-0.023458689
-0.21013133,-0.023394521
-0.21108608,-0.023389345
-0.21218556,-0.023345692
-0.21310878,-0.023284159
-0.21407054,-0.023258467
-0.21516548,-0.023236257
-0.21608619,-0.02317909
-0.21712264,-0.023131016
-0.2181043,-0.02313509
-0.21909225,-0.023060564
-0.22013447,-0.023008227
-0.2211,-0.023018752
-0.22208999,-0.022979062
-0.22312684,-0.022900529
-0.22411557,-0.022905733
-0.22515409,-0.022882817
-0.22613411,-0.022803605
-0.22710916,-0.022773873
-0.2281452,-0.022790202
-0.22915012,-0.022702894
-0.2301372,-0.022659525
-0.23117071,-0.022666521
-0.23211259,-0.022609153
-0.23313867,-0.022550382
-0.23411706,-0.022553495
-0.23513772,-0.022541484
-0.23609205,-0.02246221
-0.2371264,-0.02245902
-0.23812345,-0.022434249
-0.23910595,-0.022381607
-0.24015316,-0.022354332
-0.24113029,-0.022341089
-0.2421547,-0.022296329
-0.2431476,-0.02224388
-0.24408574,-0.022219449
-0.24511099,-0.022209775
-0.24613248,-0.022146929
-0.24711877,-0.022134308
-0.24811579,-0.022124669
-0.24908336,-0.022053865
-0.25010863,-0.022007886
-0.25108033,-0.022021454
-0.25212553,-0.021979303
-0.25315362,-0.021919445
-0.25411832,-0.021934958
-0.2551415,-0.021890765
-0.25609955,-0.021836102
-0.2571173,-0.021828975
-0.25812554,-0.021809222
-0.25911471,-0.021735698
-0.26009473,-0.021699054
-0.26113907,-0.021709488
-0.262144,-0.021652908
-0.26314184,-0.02160972
-0.26413515,-0.02161017
-0.26510149,-0.021581663
-0.26613334,-0.021509799
-0.2671549,-0.021496299
-0.26812741,-0.021498203
-0.26913193,-0.02143018
-0.27015594,-0.021393306
-0.27112976,-0.021395603
-0.272167,-0.021362897
-0.27313253,-0.021292466
-0.27408683,-0.021292258
-0.27509716,-0.021267958
-0.27608424,-0.021207699
-0.27716297,-0.021193064
-0.27815545,-0.021178139
-0.27916038,-0.021123782
-0.28015038,-0.021074821
-0.28111833,-0.021079339
-0.28216434,-0.021038274
-0.2831448,-0.020965808
-0.28413641,-0.020963851
-0.2851252,-0.020960474
-0.28614458,-0.02087049
-0.28714496,-0.020861558
-0.28811708,-0.020852824
-0.28915274,-0.020769074
-0.2901423,-0.020730997
-0.29114762,-0.020743749
-0.2921322,-0.020698222
-0.29313132,-0.020622559
-0.29415119,-0.020625714
-0.29511419,-0.020592349
-0.29614359,-0.020535121
-0.29714185,-0.020508246
-0.29816294,-0.020494312
-0.29913345,-0.020426786
-0.30008072,-0.020395256
-0.30110469,-0.020379522
-0.30214238,-0.020328976
-0.30314603,-0.020276085
-0.30414766,-0.020263272
-0.30515712,-0.020241117
-0.30616164,-0.020157691
-0.30716699,-0.02013988
-0.30814952,-0.02014105
-0.30921289,-0.020074847
-0.31016886,-0.020020047
-0.31116137,-0.020034779
-0.31218907,-0.019970706
-0.31315336,-0.019899645
-0.31415993,-0.019905312
-0.31516027,-0.01986186
-0.31613937,-0.019792898
-0.3171488,-0.01977318
-0.31817466,-0.01976104
-0.319152,-0.019695793
-0.32015142,-0.019636541
-0.32117993,-0.019639803
-0.32213163,-0.019566258
-0.32311544,-0.019502964
-0.32415521,-0.019516093
-0.32511562,-0.019462468
-0.32614151,-0.019395484
-0.32712579,-0.019386123
-0.32814556,-0.019362897
-0.32913807,-0.019271208
-0.33013794,-0.01923572
-0.33115733,-0.019236718
-0.33212292,-0.019181618
-0.33314794,-0.019102994
-0.33412567,-0.019109867
-0.33514592,-0.019077988
-0.3361159,-0.018994005
-0.33714262,-0.018972028
-0.33814338,-0.018959406
-0.3391237,-0.018877106
-0.34014568,-0.018842674
-0.34113038,-0.018835521
-0.34218401,-0.018773658
-0.34315741,-0.018703881
-0.34419546,-0.018695988
-0.34513766,-0.018660753
-0.3461414,-0.018585284
-0.34714082,-0.018546243
-0.34817496,-0.018537121
-0.34915182,-0.018474195
-0.35013261,-0.018410509
-0.3511585,-0.018409454
-0.35210329,-0.018331755
-0.35317299,-0.018286458
-0.35417196,-0.018281394
-0.35517141,-0.018238043
-0.35620549,-0.018167825
-0.35715637,-0.018141066
-0.35820311,-0.018127685
-0.35919124,-0.018047787
-0.36012778,-0.018001659
-0.36118752,-0.017990112
-0.36214137,-0.017919453
-0.3631677,-0.017855927
-0.36415109,-0.017859254
-0.36514184,-0.017815469
-0.36613217,-0.017728686
-0.36714983,-0.017688979
-0.36817831,-0.017685825
-0.36914739,-0.017618277
-0.37017721,-0.017560233
-0.37111589,-0.017555393
-0.37211919,-0.017481089
-0.373162,-0.01741767
-0.37419048,-0.017413729
-0.3751713,-0.017383166
-0.37615988,-0.017292917
-0.37711504,-0.01725191
-0.37814876,-0.017253632
-0.37913734,-0.017180729
-0.38015372,-0.017123844
-0.38116831,-0.017118693
-0.38219157,-0.017059774
-0.38317323,-0.016999959
-0.38419563,-0.017003748
-0.38519421,-0.016944736
-0.38619235,-0.016875481
-0.3871831,-0.016845786
-0.38817731,-0.016831948
-0.38913858,-0.016743357
-0.39014885,-0.016694298
-0.39119989,-0.016696756
-0.39217028,-0.016629447
-0.39315408,-0.016572618
-0.39413011,-0.016556053
-0.39518028,-0.016532435
-0.39620051,-0.016452212
-0.39716485,-0.016438997
-0.39815471,-0.016411001
-0.39919099,-0.016344733
-0.40003291,-0.016292602
-0.40038067,-0.016311307
-0.40053332,-0.016279478
-0.40105471,-0.016279414
-0.40205297,-0.01622844
-0.40301269,-0.016161233
-0.4040508,-0.016150432
-0.40503949,-0.016125606
-0.40603366,-0.016052332
-0.407056,-0.016030752
-0.40805551,-0.016025237
-0.4090749,-0.015954079
-0.41007075,-0.015901549
-0.41101223,-0.015903755
-0.4120445,-0.015864254
-0.413032,-0.015798431
-0.41403651,-0.015778283
-0.41507378,-0.015762583
-0.41601649,-0.015702427
-0.41702721,-0.015662953
-0.41802508,-0.015661528
-0.41904327,-0.015593415
-0.42009336,-0.015557918
-0.42109743,-0.01555821
-0.42207044,-0.015519586
-0.4230746,-0.015464373
-0.42406404,-0.015451786
-0.42507258,-0.015431431
-0.42604986,-0.015369292
-0.42705235,-0.015348777
-0.42808217,-0.015353147
-0.42904904,-0.015281403
-0.43003419,-0.015253451
-0.43109259,-0.015255788
-0.43205816,-0.015231258
-0.43304807,-0.015169301
-0.4340913,-0.015183104
-0.43503523,-0.015161467
-0.43610227,-0.015107865
-0.43707874,-0.015091625
-0.43809423,-0.015091503
-0.43908453,-0.015029611
-0.44004449,-0.015003836
-0.44109818,-0.01502386
-0.44203469,-0.014970641
-0.44306839,-0.014930306
-0.4441095,-0.0149435
-0.44510755,-0.014927138
-0.4460637,-0.014884705
-0.4470163,-0.014853939
-0.44802007,-0.014877369
-0.44904289,-0.014839985
-0.45005447,-0.014809821
-0.45100054,-0.014811955
-0.45203897,-0.014804757
-0.45304322,-0.014754222
-0.45407906,-0.014767388
-0.45505071,-0.014763207
-0.45605838,-0.014714748
-0.45708427,-0.014726756
-0.45806506,-0.014728767
-0.45908269,-0.014681161
-0.46005005,-0.014659235
-0.46104562,-0.014686977
-0.46206933,-0.014660385
-0.46303797,-0.014625389
-0.46408156,-0.014629997
-0.46508279,-0.014648255
-0.46605098,-0.014583079
-0.4670426,-0.014592671
-0.46809149,-0.014617338
-0.46909261,-0.014580497
-0.47009727,-0.01456179
-0.47104335,-0.014595326
-0.47207701,-0.014580352
-0.47308344,-0.014528616
-0.47407159,-0.014568293
-0.47502461,-0.014536537
-0.47605869,-0.014516768
-0.47703561,-0.014507812
-0.47805753,-0.014535748
-0.47905052,-0.014503472
-0.48005083,-0.014487493
-0.48109233,-0.01452544
-0.48205873,-0.014496137
-0.4830634,-0.014467896
-0.48405546,-0.014499819
-0.48509395,-0.014520059
-0.4860656,-0.014464293
-0.48708624,-0.014489431
-0.48808089,-0.014499182
-0.48904216,-0.014461278
-0.49010408,-0.014461437
-0.49108356,-0.0144887
-0.49210337,-0.014486393
-0.49307162,-0.014451229
-0.49410704,-0.014480816
-0.4950718,-0.014485503
-0.49607986,-0.014440336
-0.49708453,-0.0144585
-0.49808827,-0.014489063
-0.49907118,-0.014466905
-0.50004947,-0.014450891
-0.50108618,-0.014495016
-0.50203305,-0.014476541
-0.50303948,-0.014445493
-0.50403458,-0.014463968
-0.5050683,-0.014495652
-0.50604433,-0.014446383
-0.50709182,-0.014487709
-0.50808215,-0.014507045
-0.50909203,-0.014470457
-0.51008964,-0.014454441
-0.51107776,-0.014509555
-0.51209462,-0.01450013
-0.51308233,-0.014466059
-0.5140779,-0.014499522
-0.51506907,-0.014517325
-0.51609844,-0.014488715
-0.51711565,-0.014517867
-0.51811248,-0.014535105
-0.51908934,-0.014498039
-0.52008396,-0.014498343
-0.52109903,-0.01452897
-0.52206993,-0.014518077
-0.52308708,-0.014508637
-0.52409256,-0.014534425
-0.52512449,-0.014563504
-0.52610093,-0.014534989
-0.52708691,-0.014545152
-0.52806342,-0.014586754
-0.52874178,-0.014552276
-0.52879512,-0.014554056
