Aug. 24, 2021   10:51:33
Cyclic Voltammetry
File: c:\users\nstumme\onedrive - university of iowa\documents\year 3\210824\02 gc we pt re pt ce 0.1m tbapf6 in mecn 10 ml fc 100 mv scan rate.csv
Data Source:  Experiment
Instrument Model:  CHI1100B
Header: 
Note: 

Init E (V) = 0.3
High E (V) = 0.9
Low E (V) = 0.3
Init P/N = P
Scan Rate (V/s) = 0.1
Segment = 6
Sample Interval (V) = 0.001
Quiet Time (sec) = 2
Sensitivity (A/V) = 1e-5

Segment 1:
Segment 2:

Segment 3:
Segment 4:

Segment 5:
Segment 6:

Potential/V, Current/A

0.300, 3.714e-6
0.301, 3.943e-6
0.302, 4.086e-6
0.303, 4.194e-6
0.304, 4.281e-6
0.305, 4.358e-6
0.306, 4.433e-6
0.307, 4.502e-6
0.308, 4.565e-6
0.309, 4.628e-6
0.310, 4.682e-6
0.311, 4.736e-6
0.312, 4.792e-6
0.313, 4.841e-6
0.314, 4.891e-6
0.315, 4.940e-6
0.316, 4.988e-6
0.317, 5.031e-6
0.318, 5.075e-6
0.319, 5.121e-6
0.320, 5.164e-6
0.321, 5.204e-6
0.322, 5.251e-6
0.323, 5.290e-6
0.324, 5.332e-6
0.325, 5.374e-6
0.326, 5.414e-6
0.327, 5.455e-6
0.328, 5.499e-6
0.329, 5.537e-6
0.330, 5.578e-6
0.331, 5.617e-6
0.332, 5.656e-6
0.333, 5.692e-6
0.334, 5.732e-6
0.335, 5.772e-6
0.336, 5.809e-6
0.337, 5.846e-6
0.338, 5.886e-6
0.339, 5.921e-6
0.340, 5.959e-6
0.341, 5.997e-6
0.342, 6.030e-6
0.343, 6.068e-6
0.344, 6.106e-6
0.345, 6.142e-6
0.346, 6.179e-6
0.347, 6.216e-6
0.348, 6.253e-6
0.349, 6.289e-6
0.350, 6.330e-6
0.351, 6.369e-6
0.352, 6.403e-6
0.353, 6.440e-6
0.354, 6.481e-6
0.355, 6.517e-6
0.356, 6.553e-6
0.357, 6.593e-6
0.358, 6.629e-6
0.359, 6.668e-6
0.360, 6.707e-6
0.361, 6.742e-6
0.362, 6.777e-6
0.363, 6.816e-6
0.364, 6.855e-6
0.365, 6.888e-6
0.366, 6.926e-6
0.367, 6.967e-6
0.368, 7.005e-6
0.369, 7.044e-6
0.370, 7.084e-6
0.371, 7.123e-6
0.372, 7.161e-6
0.373, 7.205e-6
0.374, 7.242e-6
0.375, 7.282e-6
0.376, 7.326e-6
0.377, 7.364e-6
0.378, 7.404e-6
0.379, 7.444e-6
0.380, 7.486e-6
0.381, 7.525e-6
0.382, 7.568e-6
0.383, 7.610e-6
0.384, 7.648e-6
0.385, 7.689e-6
0.386, 7.735e-6
0.387, 7.777e-6
0.388, 7.817e-6
0.389, 7.864e-6
0.390, 7.906e-6
0.391, 7.948e-6
0.392, 7.996e-6
0.393, 8.038e-6
0.394, 8.083e-6
0.395, 8.131e-6
0.396, 8.180e-6
0.397, 8.225e-6
0.398, 8.272e-6
0.399, 8.320e-6
0.400, 8.368e-6
0.401, 8.414e-6
0.402, 8.466e-6
0.403, 8.513e-6
0.404, 8.563e-6
0.405, 8.614e-6
0.406, 8.660e-6
0.407, 8.711e-6
0.408, 8.767e-6
0.409, 8.811e-6
0.410, 8.823e-6
0.411, 8.896e-6
0.412, 8.955e-6
0.413, 9.012e-6
0.414, 9.071e-6
0.415, 9.131e-6
0.416, 9.189e-6
0.417, 9.246e-6
0.418, 9.310e-6
0.419, 9.369e-6
0.420, 9.428e-6
0.421, 9.495e-6
0.422, 9.555e-6
0.423, 9.617e-6
0.424, 9.683e-6
0.425, 9.747e-6
0.426, 9.811e-6
0.427, 9.879e-6
0.428, 9.950e-6
0.429, 1.002e-5
0.430, 1.009e-5
0.431, 1.016e-5
0.432, 1.023e-5
0.433, 1.031e-5
0.434, 1.038e-5
0.435, 1.046e-5
0.436, 1.054e-5
0.437, 1.062e-5
0.438, 1.070e-5
0.439, 1.079e-5
0.440, 1.088e-5
0.441, 1.096e-5
0.442, 1.105e-5
0.443, 1.115e-5
0.444, 1.124e-5
0.445, 1.133e-5
0.446, 1.143e-5
0.447, 1.153e-5
0.448, 1.162e-5
0.449, 1.172e-5
0.450, 1.183e-5
0.451, 1.193e-5
0.452, 1.204e-5
0.453, 1.215e-5
0.454, 1.226e-5
0.455, 1.238e-5
0.456, 1.250e-5
0.457, 1.262e-5
0.458, 1.275e-5
0.459, 1.288e-5
0.460, 1.301e-5
0.461, 1.315e-5
0.462, 1.328e-5
0.463, 1.343e-5
0.464, 1.357e-5
0.465, 1.371e-5
0.466, 1.387e-5
0.467, 1.402e-5
0.468, 1.417e-5
0.469, 1.433e-5
0.470, 1.449e-5
0.471, 1.466e-5
0.472, 1.483e-5
0.473, 1.500e-5
0.474, 1.517e-5
0.475, 1.536e-5
0.476, 1.555e-5
0.477, 1.574e-5
0.478, 1.593e-5
0.479, 1.614e-5
0.480, 1.635e-5
0.481, 1.655e-5
0.482, 1.678e-5
0.483, 1.699e-5
0.484, 1.722e-5
0.485, 1.745e-5
0.486, 1.768e-5
0.487, 1.791e-5
0.488, 1.817e-5
0.489, 1.842e-5
0.490, 1.866e-5
0.491, 1.893e-5
0.492, 1.920e-5
0.493, 1.945e-5
0.494, 1.972e-5
0.495, 2.001e-5
0.496, 2.029e-5
0.497, 2.058e-5
0.498, 2.088e-5
0.499, 2.118e-5
0.500, 2.148e-5
0.501, 2.180e-5
0.502, 2.212e-5
0.503, 2.245e-5
0.504, 2.278e-5
0.505, 2.312e-5
0.506, 2.346e-5
0.507, 2.380e-5
0.508, 2.417e-5
0.509, 2.452e-5
0.510, 2.488e-5
0.511, 2.525e-5
0.512, 2.564e-5
0.513, 2.602e-5
0.514, 2.640e-5
0.515, 2.677e-5
0.516, 2.716e-5
0.517, 2.756e-5
0.518, 2.795e-5
0.519, 2.834e-5
0.520, 2.876e-5
0.521, 2.918e-5
0.522, 2.959e-5
0.523, 3.001e-5
0.524, 3.044e-5
0.525, 3.086e-5
0.526, 3.128e-5
0.527, 3.174e-5
0.528, 3.217e-5
0.529, 3.260e-5
0.530, 3.306e-5
0.531, 3.350e-5
0.532, 3.393e-5
0.533, 3.438e-5
0.534, 3.483e-5
0.535, 3.528e-5
0.536, 3.573e-5
0.537, 3.618e-5
0.538, 3.662e-5
0.539, 3.707e-5
0.540, 3.753e-5
0.541, 3.797e-5
0.542, 3.841e-5
0.543, 3.888e-5
0.544, 3.932e-5
0.545, 3.975e-5
0.546, 4.022e-5
0.547, 4.065e-5
0.548, 4.109e-5
0.549, 4.154e-5
0.550, 4.197e-5
0.551, 4.239e-5
0.552, 4.282e-5
0.553, 4.325e-5
0.554, 4.365e-5
0.555, 4.406e-5
0.556, 4.448e-5
0.557, 4.487e-5
0.558, 4.526e-5
0.559, 4.566e-5
0.560, 4.604e-5
0.561, 4.641e-5
0.562, 4.679e-5
0.563, 4.713e-5
0.564, 4.749e-5
0.565, 4.783e-5
0.566, 4.816e-5
0.567, 4.847e-5
0.568, 4.878e-5
0.569, 4.909e-5
0.570, 4.937e-5
0.571, 4.966e-5
0.572, 4.994e-5
0.573, 5.019e-5
0.574, 5.043e-5
0.575, 5.068e-5
0.576, 5.090e-5
0.577, 5.110e-5
0.578, 5.131e-5
0.579, 5.150e-5
0.580, 5.167e-5
0.581, 5.185e-5
0.582, 5.199e-5
0.583, 5.212e-5
0.584, 5.226e-5
0.585, 5.239e-5
0.586, 5.248e-5
0.587, 5.258e-5
0.588, 5.266e-5
0.589, 5.273e-5
0.590, 5.278e-5
0.591, 5.284e-5
0.592, 5.287e-5
0.593, 5.289e-5
0.594, 5.292e-5
0.595, 5.292e-5
0.596, 5.290e-5
0.597, 5.290e-5
0.598, 5.287e-5
0.599, 5.283e-5
0.600, 5.280e-5
0.601, 5.274e-5
0.602, 5.268e-5
0.603, 5.261e-5
0.604, 5.254e-5
0.605, 5.246e-5
0.606, 5.237e-5
0.607, 5.229e-5
0.608, 5.218e-5
0.609, 5.207e-5
0.610, 5.196e-5
0.611, 5.184e-5
0.612, 5.172e-5
0.613, 5.160e-5
0.614, 5.148e-5
0.615, 5.138e-5
0.616, 5.124e-5
0.617, 5.110e-5
0.618, 5.094e-5
0.619, 5.080e-5
0.620, 5.065e-5
0.621, 5.050e-5
0.622, 5.034e-5
0.623, 5.020e-5
0.624, 5.005e-5
0.625, 4.989e-5
0.626, 4.974e-5
0.627, 4.958e-5
0.628, 4.942e-5
0.629, 4.927e-5
0.630, 4.912e-5
0.631, 4.896e-5
0.632, 4.881e-5
0.633, 4.866e-5
0.634, 4.850e-5
0.635, 4.835e-5
0.636, 4.820e-5
0.637, 4.805e-5
0.638, 4.789e-5
0.639, 4.776e-5
0.640, 4.761e-5
0.641, 4.746e-5
0.642, 4.732e-5
0.643, 4.717e-5
0.644, 4.703e-5
0.645, 4.690e-5
0.646, 4.676e-5
0.647, 4.662e-5
0.648, 4.649e-5
0.649, 4.637e-5
0.650, 4.623e-5
0.651, 4.610e-5
0.652, 4.598e-5
0.653, 4.585e-5
0.654, 4.573e-5
0.655, 4.561e-5
0.656, 4.549e-5
0.657, 4.536e-5
0.658, 4.526e-5
0.659, 4.514e-5
0.660, 4.503e-5
0.661, 4.492e-5
0.662, 4.481e-5
0.663, 4.470e-5
0.664, 4.460e-5
0.665, 4.449e-5
0.666, 4.440e-5
0.667, 4.430e-5
0.668, 4.420e-5
0.669, 4.410e-5
0.670, 4.401e-5
0.671, 4.392e-5
0.672, 4.382e-5
0.673, 4.373e-5
0.674, 4.365e-5
0.675, 4.356e-5
0.676, 4.348e-5
0.677, 4.339e-5
0.678, 4.331e-5
0.679, 4.323e-5
0.680, 4.315e-5
0.681, 4.307e-5
0.682, 4.300e-5
0.683, 4.292e-5
0.684, 4.285e-5
0.685, 4.278e-5
0.686, 4.271e-5
0.687, 4.264e-5
0.688, 4.257e-5
0.689, 4.250e-5
0.690, 4.244e-5
0.691, 4.238e-5
0.692, 4.231e-5
0.693, 4.226e-5
0.694, 4.220e-5
0.695, 4.213e-5
0.696, 4.208e-5
0.697, 4.202e-5
0.698, 4.196e-5
0.699, 4.191e-5
0.700, 4.185e-5
0.701, 4.180e-5
0.702, 4.175e-5
0.703, 4.170e-5
0.704, 4.165e-5
0.705, 4.160e-5
0.706, 4.155e-5
0.707, 4.150e-5
0.708, 4.146e-5
0.709, 4.142e-5
0.710, 4.137e-5
0.711, 4.133e-5
0.712, 4.129e-5
0.713, 4.125e-5
0.714, 4.121e-5
0.715, 4.117e-5
0.716, 4.113e-5
0.717, 4.110e-5
0.718, 4.106e-5
0.719, 4.102e-5
0.720, 4.099e-5
0.721, 4.095e-5
0.722, 4.092e-5
0.723, 4.088e-5
0.724, 4.085e-5
0.725, 4.082e-5
0.726, 4.079e-5
0.727, 4.075e-5
0.728, 4.073e-5
0.729, 4.069e-5
0.730, 4.067e-5
0.731, 4.064e-5
0.732, 4.062e-5
0.733, 4.059e-5
0.734, 4.056e-5
0.735, 4.054e-5
0.736, 4.051e-5
0.737, 4.049e-5
0.738, 4.047e-5
0.739, 4.044e-5
0.740, 4.042e-5
0.741, 4.040e-5
0.742, 4.038e-5
0.743, 4.035e-5
0.744, 4.034e-5
0.745, 4.032e-5
0.746, 4.030e-5
0.747, 4.028e-5
0.748, 4.027e-5
0.749, 4.024e-5
0.750, 4.023e-5
0.751, 4.022e-5
0.752, 4.020e-5
0.753, 4.018e-5
0.754, 4.017e-5
0.755, 4.016e-5
0.756, 4.015e-5
0.757, 4.014e-5
0.758, 4.012e-5
0.759, 4.011e-5
0.760, 4.010e-5
0.761, 4.009e-5
0.762, 4.008e-5
0.763, 4.007e-5
0.764, 4.006e-5
0.765, 4.005e-5
0.766, 4.004e-5
0.767, 4.004e-5
0.768, 4.003e-5
0.769, 4.002e-5
0.770, 4.002e-5
0.771, 4.001e-5
0.772, 4.000e-5
0.773, 4.000e-5
0.774, 4.000e-5
0.775, 3.999e-5
0.776, 3.999e-5
0.777, 3.999e-5
0.778, 3.999e-5
0.779, 3.999e-5
0.780, 3.999e-5
0.781, 3.998e-5
0.782, 3.998e-5
0.783, 3.999e-5
0.784, 3.999e-5
0.785, 3.998e-5
0.786, 3.999e-5
0.787, 3.999e-5
0.788, 3.999e-5
0.789, 4.000e-5
0.790, 4.000e-5
0.791, 4.001e-5
0.792, 4.002e-5
0.793, 4.002e-5
0.794, 4.002e-5
0.795, 4.003e-5
0.796, 4.004e-5
0.797, 4.004e-5
0.798, 4.005e-5
0.799, 4.006e-5
0.800, 4.007e-5
0.801, 4.008e-5
0.802, 4.009e-5
0.803, 4.010e-5
0.804, 4.011e-5
0.805, 4.013e-5
0.806, 4.014e-5
0.807, 4.015e-5
0.808, 4.017e-5
0.809, 4.018e-5
0.810, 4.019e-5
0.811, 4.020e-5
0.812, 4.022e-5
0.813, 4.024e-5
0.814, 4.025e-5
0.815, 4.027e-5
0.816, 4.029e-5
0.817, 4.030e-5
0.818, 4.033e-5
0.819, 4.030e-5
0.820, 4.030e-5
0.821, 4.035e-5
0.822, 4.037e-5
0.823, 4.040e-5
0.824, 4.042e-5
0.825, 4.045e-5
0.826, 4.047e-5
0.827, 4.050e-5
0.828, 4.052e-5
0.829, 4.054e-5
0.830, 4.057e-5
0.831, 4.060e-5
0.832, 4.062e-5
0.833, 4.065e-5
0.834, 4.068e-5
0.835, 4.070e-5
0.836, 4.073e-5
0.837, 4.076e-5
0.838, 4.079e-5
0.839, 4.082e-5
0.840, 4.085e-5
0.841, 4.088e-5
0.842, 4.091e-5
0.843, 4.094e-5
0.844, 4.098e-5
0.845, 4.101e-5
0.846, 4.104e-5
0.847, 4.108e-5
0.848, 4.111e-5
0.849, 4.115e-5
0.850, 4.119e-5
0.851, 4.122e-5
0.852, 4.125e-5
0.853, 4.129e-5
0.854, 4.133e-5
0.855, 4.136e-5
0.856, 4.140e-5
0.857, 4.144e-5
0.858, 4.147e-5
0.859, 4.151e-5
0.860, 4.155e-5
0.861, 4.159e-5
0.862, 4.162e-5
0.863, 4.167e-5
0.864, 4.171e-5
0.865, 4.175e-5
0.866, 4.179e-5
0.867, 4.183e-5
0.868, 4.187e-5
0.869, 4.192e-5
0.870, 4.196e-5
0.871, 4.200e-5
0.872, 4.204e-5
0.873, 4.208e-5
0.874, 4.212e-5
0.875, 4.216e-5
0.876, 4.220e-5
0.877, 4.224e-5
0.878, 4.228e-5
0.879, 4.232e-5
0.880, 4.237e-5
0.881, 4.240e-5
0.882, 4.245e-5
0.883, 4.249e-5
0.884, 4.253e-5
0.885, 4.258e-5
0.886, 4.262e-5
0.887, 4.266e-5
0.888, 4.270e-5
0.889, 4.275e-5
0.890, 4.279e-5
0.891, 4.283e-5
0.892, 4.287e-5
0.893, 4.292e-5
0.894, 4.296e-5
0.895, 4.300e-5
0.896, 4.304e-5
0.897, 4.308e-5
0.898, 4.313e-5
0.899, 4.316e-5
0.900, 4.290e-5
0.899, 4.200e-5
0.898, 4.136e-5
0.897, 4.086e-5
0.896, 4.043e-5
0.895, 4.004e-5
0.894, 3.968e-5
0.893, 3.934e-5
0.892, 3.903e-5
0.891, 3.872e-5
0.890, 3.843e-5
0.889, 3.815e-5
0.888, 3.787e-5
0.887, 3.761e-5
0.886, 3.736e-5
0.885, 3.711e-5
0.884, 3.687e-5
0.883, 3.664e-5
0.882, 3.641e-5
0.881, 3.619e-5
0.880, 3.598e-5
0.879, 3.577e-5
0.878, 3.555e-5
0.877, 3.535e-5
0.876, 3.516e-5
0.875, 3.496e-5
0.874, 3.477e-5
0.873, 3.459e-5
0.872, 3.440e-5
0.871, 3.422e-5
0.870, 3.404e-5
0.869, 3.387e-5
0.868, 3.370e-5
0.867, 3.354e-5
0.866, 3.337e-5
0.865, 3.321e-5
0.864, 3.305e-5
0.863, 3.289e-5
0.862, 3.273e-5
0.861, 3.258e-5
0.860, 3.244e-5
0.859, 3.228e-5
0.858, 3.214e-5
0.857, 3.200e-5
0.856, 3.186e-5
0.855, 3.172e-5
0.854, 3.158e-5
0.853, 3.144e-5
0.852, 3.132e-5
0.851, 3.119e-5
0.850, 3.106e-5
0.849, 3.093e-5
0.848, 3.081e-5
0.847, 3.068e-5
0.846, 3.056e-5
0.845, 3.044e-5
0.844, 3.032e-5
0.843, 3.020e-5
0.842, 3.008e-5
0.841, 2.997e-5
0.840, 2.985e-5
0.839, 2.975e-5
0.838, 2.964e-5
0.837, 2.953e-5
0.836, 2.942e-5
0.835, 2.932e-5
0.834, 2.921e-5
0.833, 2.910e-5
0.832, 2.900e-5
0.831, 2.890e-5
0.830, 2.880e-5
0.829, 2.870e-5
0.828, 2.861e-5
0.827, 2.850e-5
0.826, 2.841e-5
0.825, 2.831e-5
0.824, 2.821e-5
0.823, 2.812e-5
0.822, 2.803e-5
0.821, 2.794e-5
0.820, 2.785e-5
0.819, 2.783e-5
0.818, 2.772e-5
0.817, 2.761e-5
0.816, 2.752e-5
0.815, 2.743e-5
0.814, 2.734e-5
0.813, 2.725e-5
0.812, 2.717e-5
0.811, 2.708e-5
0.810, 2.700e-5
0.809, 2.691e-5
0.808, 2.682e-5
0.807, 2.674e-5
0.806, 2.666e-5
0.805, 2.658e-5
0.804, 2.650e-5
0.803, 2.642e-5
0.802, 2.633e-5
0.801, 2.625e-5
0.800, 2.618e-5
0.799, 2.610e-5
0.798, 2.602e-5
0.797, 2.594e-5
0.796, 2.586e-5
0.795, 2.578e-5
0.794, 2.571e-5
0.793, 2.563e-5
0.792, 2.555e-5
0.791, 2.548e-5
0.790, 2.541e-5
0.789, 2.533e-5
0.788, 2.525e-5
0.787, 2.518e-5
0.786, 2.511e-5
0.785, 2.503e-5
0.784, 2.495e-5
0.783, 2.488e-5
0.782, 2.481e-5
0.781, 2.474e-5
0.780, 2.466e-5
0.779, 2.459e-5
0.778, 2.452e-5
0.777, 2.445e-5
0.776, 2.437e-5
0.775, 2.430e-5
0.774, 2.424e-5
0.773, 2.416e-5
0.772, 2.409e-5
0.771, 2.403e-5
0.770, 2.395e-5
0.769, 2.388e-5
0.768, 2.381e-5
0.767, 2.374e-5
0.766, 2.367e-5
0.765, 2.360e-5
0.764, 2.353e-5
0.763, 2.346e-5
0.762, 2.339e-5
0.761, 2.332e-5
0.760, 2.325e-5
0.759, 2.318e-5
0.758, 2.311e-5
0.757, 2.304e-5
0.756, 2.298e-5
0.755, 2.291e-5
0.754, 2.284e-5
0.753, 2.277e-5
0.752, 2.271e-5
0.751, 2.264e-5
0.750, 2.257e-5
0.749, 2.250e-5
0.748, 2.243e-5
0.747, 2.236e-5
0.746, 2.230e-5
0.745, 2.223e-5
0.744, 2.216e-5
0.743, 2.209e-5
0.742, 2.202e-5
0.741, 2.195e-5
0.740, 2.188e-5
0.739, 2.182e-5
0.738, 2.175e-5
0.737, 2.168e-5
0.736, 2.162e-5
0.735, 2.155e-5
0.734, 2.148e-5
0.733, 2.141e-5
0.732, 2.135e-5
0.731, 2.128e-5
0.730, 2.121e-5
0.729, 2.115e-5
0.728, 2.107e-5
0.727, 2.101e-5
0.726, 2.094e-5
0.725, 2.086e-5
0.724, 2.080e-5
0.723, 2.073e-5
0.722, 2.066e-5
0.721, 2.059e-5
0.720, 2.052e-5
0.719, 2.045e-5
0.718, 2.038e-5
0.717, 2.030e-5
0.716, 2.024e-5
0.715, 2.017e-5
0.714, 2.010e-5
0.713, 2.003e-5
0.712, 1.996e-5
0.711, 1.989e-5
0.710, 1.982e-5
0.709, 1.975e-5
0.708, 1.968e-5
0.707, 1.961e-5
0.706, 1.954e-5
0.705, 1.947e-5
0.704, 1.939e-5
0.703, 1.932e-5
0.702, 1.925e-5
0.701, 1.917e-5
0.700, 1.910e-5
0.699, 1.902e-5
0.698, 1.895e-5
0.697, 1.888e-5
0.696, 1.880e-5
0.695, 1.873e-5
0.694, 1.866e-5
0.693, 1.858e-5
0.692, 1.851e-5
0.691, 1.843e-5
0.690, 1.835e-5
0.689, 1.828e-5
0.688, 1.820e-5
0.687, 1.812e-5
0.686, 1.804e-5
0.685, 1.797e-5
0.684, 1.789e-5
0.683, 1.780e-5
0.682, 1.772e-5
0.681, 1.764e-5
0.680, 1.755e-5
0.679, 1.747e-5
0.678, 1.738e-5
0.677, 1.730e-5
0.676, 1.721e-5
0.675, 1.712e-5
0.674, 1.704e-5
0.673, 1.695e-5
0.672, 1.687e-5
0.671, 1.678e-5
0.670, 1.669e-5
0.669, 1.660e-5
0.668, 1.651e-5
0.667, 1.641e-5
0.666, 1.632e-5
0.665, 1.623e-5
0.664, 1.613e-5
0.663, 1.603e-5
0.662, 1.593e-5
0.661, 1.583e-5
0.660, 1.573e-5
0.659, 1.563e-5
0.658, 1.552e-5
0.657, 1.542e-5
0.656, 1.531e-5
0.655, 1.520e-5
0.654, 1.509e-5
0.653, 1.498e-5
0.652, 1.487e-5
0.651, 1.475e-5
0.650, 1.464e-5
0.649, 1.453e-5
0.648, 1.440e-5
0.647, 1.429e-5
0.646, 1.417e-5
0.645, 1.404e-5
0.644, 1.391e-5
0.643, 1.378e-5
0.642, 1.365e-5
0.641, 1.351e-5
0.640, 1.337e-5
0.639, 1.324e-5
0.638, 1.309e-5
0.637, 1.295e-5
0.636, 1.280e-5
0.635, 1.264e-5
0.634, 1.250e-5
0.633, 1.235e-5
0.632, 1.219e-5
0.631, 1.203e-5
0.630, 1.187e-5
0.629, 1.170e-5
0.628, 1.154e-5
0.627, 1.136e-5
0.626, 1.119e-5
0.625, 1.101e-5
0.624, 1.083e-5
0.623, 1.065e-5
0.622, 1.046e-5
0.621, 1.026e-5
0.620, 1.007e-5
0.619, 9.867e-6
0.618, 9.670e-6
0.617, 9.461e-6
0.616, 9.245e-6
0.615, 9.028e-6
0.614, 8.770e-6
0.613, 8.555e-6
0.612, 8.339e-6
0.611, 8.114e-6
0.610, 7.883e-6
0.609, 7.638e-6
0.608, 7.414e-6
0.607, 7.168e-6
0.606, 6.912e-6
0.605, 6.672e-6
0.604, 6.416e-6
0.603, 6.148e-6
0.602, 5.888e-6
0.601, 5.624e-6
0.600, 5.347e-6
0.599, 5.068e-6
0.598, 4.794e-6
0.597, 4.507e-6
0.596, 4.213e-6
0.595, 3.926e-6
0.594, 3.633e-6
0.593, 3.331e-6
0.592, 3.026e-6
0.591, 2.731e-6
0.590, 2.411e-6
0.589, 2.114e-6
0.588, 1.805e-6
0.587, 1.480e-6
0.586, 1.167e-6
0.585, 8.612e-7
0.584, 5.278e-7
0.583, 2.005e-7
0.582, -1.230e-7
0.581, -4.546e-7
0.580, -7.983e-7
0.579, -1.120e-6
0.578, -1.452e-6
0.577, -1.800e-6
0.576, -2.135e-6
0.575, -2.462e-6
0.574, -2.806e-6
0.573, -3.138e-6
0.572, -3.474e-6
0.571, -3.814e-6
0.570, -4.152e-6
0.569, -4.492e-6
0.568, -4.844e-6
0.567, -5.187e-6
0.566, -5.522e-6
0.565, -5.868e-6
0.564, -6.215e-6
0.563, -6.567e-6
0.562, -6.905e-6
0.561, -7.251e-6
0.560, -7.599e-6
0.559, -7.945e-6
0.558, -8.303e-6
0.557, -8.653e-6
0.556, -8.997e-6
0.555, -9.360e-6
0.554, -9.706e-6
0.553, -1.006e-5
0.552, -1.043e-5
0.551, -1.080e-5
0.550, -1.116e-5
0.549, -1.153e-5
0.548, -1.191e-5
0.547, -1.226e-5
0.546, -1.263e-5
0.545, -1.302e-5
0.544, -1.339e-5
0.543, -1.377e-5
0.542, -1.416e-5
0.541, -1.454e-5
0.540, -1.491e-5
0.539, -1.531e-5
0.538, -1.568e-5
0.537, -1.605e-5
0.536, -1.642e-5
0.535, -1.679e-5
0.534, -1.712e-5
0.533, -1.747e-5
0.532, -1.782e-5
0.531, -1.815e-5
0.530, -1.846e-5
0.529, -1.876e-5
0.528, -1.906e-5
0.527, -1.936e-5
0.526, -1.965e-5
0.525, -1.991e-5
0.524, -2.017e-5
0.523, -2.042e-5
0.522, -2.064e-5
0.521, -2.086e-5
0.520, -2.108e-5
0.519, -2.128e-5
0.518, -2.146e-5
0.517, -2.162e-5
0.516, -2.179e-5
0.515, -2.193e-5
0.514, -2.205e-5
0.513, -2.218e-5
0.512, -2.231e-5
0.511, -2.241e-5
0.510, -2.250e-5
0.509, -2.256e-5
0.508, -2.263e-5
0.507, -2.271e-5
0.506, -2.276e-5
0.505, -2.280e-5
0.504, -2.285e-5
0.503, -2.288e-5
0.502, -2.292e-5
0.501, -2.295e-5
0.500, -2.298e-5
0.499, -2.301e-5
0.498, -2.303e-5
0.497, -2.307e-5
0.496, -2.310e-5
0.495, -2.310e-5
0.494, -2.312e-5
0.493, -2.312e-5
0.492, -2.312e-5
0.491, -2.312e-5
0.490, -2.310e-5
0.489, -2.308e-5
0.488, -2.307e-5
0.487, -2.304e-5
0.486, -2.300e-5
0.485, -2.297e-5
0.484, -2.295e-5
0.483, -2.291e-5
0.482, -2.288e-5
0.481, -2.286e-5
0.480, -2.282e-5
0.479, -2.278e-5
0.478, -2.275e-5
0.477, -2.271e-5
0.476, -2.266e-5
0.475, -2.262e-5
0.474, -2.256e-5
0.473, -2.249e-5
0.472, -2.244e-5
0.471, -2.237e-5
0.470, -2.228e-5
0.469, -2.222e-5
0.468, -2.213e-5
0.467, -2.204e-5
0.466, -2.195e-5
0.465, -2.187e-5
0.464, -2.177e-5
0.463, -2.167e-5
0.462, -2.158e-5
0.461, -2.149e-5
0.460, -2.140e-5
0.459, -2.131e-5
0.458, -2.120e-5
0.457, -2.110e-5
0.456, -2.100e-5
0.455, -2.088e-5
0.454, -2.077e-5
0.453, -2.067e-5
0.452, -2.055e-5
0.451, -2.043e-5
0.450, -2.031e-5
0.449, -2.019e-5
0.448, -2.006e-5
0.447, -1.993e-5
0.446, -1.980e-5
0.445, -1.968e-5
0.444, -1.955e-5
0.443, -1.942e-5
0.442, -1.929e-5
0.441, -1.916e-5
0.440, -1.904e-5
0.439, -1.892e-5
0.438, -1.879e-5
0.437, -1.867e-5
0.436, -1.855e-5
0.435, -1.842e-5
0.434, -1.830e-5
0.433, -1.818e-5
0.432, -1.806e-5
0.431, -1.793e-5
0.430, -1.782e-5
0.429, -1.769e-5
0.428, -1.757e-5
0.427, -1.745e-5
0.426, -1.733e-5
0.425, -1.720e-5
0.424, -1.708e-5
0.423, -1.696e-5
0.422, -1.683e-5
0.421, -1.672e-5
0.420, -1.660e-5
0.419, -1.647e-5
0.418, -1.636e-5
0.417, -1.624e-5
0.416, -1.612e-5
0.415, -1.600e-5
0.414, -1.589e-5
0.413, -1.578e-5
0.412, -1.566e-5
0.411, -1.556e-5
0.410, -1.542e-5
0.409, -1.528e-5
0.408, -1.520e-5
0.407, -1.509e-5
0.406, -1.499e-5
0.405, -1.489e-5
0.404, -1.478e-5
0.403, -1.468e-5
0.402, -1.457e-5
0.401, -1.448e-5
0.400, -1.437e-5
0.399, -1.427e-5
0.398, -1.418e-5
0.397, -1.409e-5
0.396, -1.399e-5
0.395, -1.390e-5
0.394, -1.381e-5
0.393, -1.372e-5
0.392, -1.363e-5
0.391, -1.355e-5
0.390, -1.346e-5
0.389, -1.338e-5
0.388, -1.330e-5
0.387, -1.321e-5
0.386, -1.314e-5
0.385, -1.306e-5
0.384, -1.298e-5
0.383, -1.290e-5
0.382, -1.282e-5
0.381, -1.275e-5
0.380, -1.267e-5
0.379, -1.260e-5
0.378, -1.253e-5
0.377, -1.246e-5
0.376, -1.239e-5
0.375, -1.233e-5
0.374, -1.226e-5
0.373, -1.220e-5
0.372, -1.213e-5
0.371, -1.207e-5
0.370, -1.201e-5
0.369, -1.195e-5
0.368, -1.189e-5
0.367, -1.183e-5
0.366, -1.177e-5
0.365, -1.171e-5
0.364, -1.165e-5
0.363, -1.160e-5
0.362, -1.154e-5
0.361, -1.149e-5
0.360, -1.144e-5
0.359, -1.139e-5
0.358, -1.133e-5
0.357, -1.128e-5
0.356, -1.123e-5
0.355, -1.119e-5
0.354, -1.114e-5
0.353, -1.109e-5
0.352, -1.105e-5
0.351, -1.100e-5
0.350, -1.096e-5
0.349, -1.092e-5
0.348, -1.087e-5
0.347, -1.083e-5
0.346, -1.079e-5
0.345, -1.075e-5
0.344, -1.071e-5
0.343, -1.067e-5
0.342, -1.063e-5
0.341, -1.059e-5
0.340, -1.055e-5
0.339, -1.051e-5
0.338, -1.047e-5
0.337, -1.044e-5
0.336, -1.040e-5
0.335, -1.037e-5
0.334, -1.034e-5
0.333, -1.030e-5
0.332, -1.027e-5
0.331, -1.024e-5
0.330, -1.020e-5
0.329, -1.017e-5
0.328, -1.015e-5
0.327, -1.011e-5
0.326, -1.008e-5
0.325, -1.006e-5
0.324, -1.003e-5
0.323, -1.000e-5
0.322, -9.975e-6
0.321, -9.948e-6
0.320, -9.922e-6
0.319, -9.894e-6
0.318, -9.869e-6
0.317, -9.841e-6
0.316, -9.814e-6
0.315, -9.792e-6
0.314, -9.766e-6
0.313, -9.742e-6
0.312, -9.722e-6
0.311, -9.697e-6
0.310, -9.676e-6
0.309, -9.655e-6
0.308, -9.636e-6
0.307, -9.623e-6
0.306, -9.600e-6
0.305, -9.580e-6
0.304, -9.559e-6
0.303, -9.539e-6
0.302, -9.523e-6
0.301, -9.503e-6
0.300, -9.294e-6
0.301, -8.771e-6
0.302, -8.432e-6
0.303, -8.173e-6
0.304, -7.952e-6
0.305, -7.753e-6
0.306, -7.566e-6
0.307, -7.390e-6
0.308, -7.227e-6
0.309, -7.071e-6
0.310, -6.923e-6
0.311, -6.781e-6
0.312, -6.642e-6
0.313, -6.507e-6
0.314, -6.379e-6
0.315, -6.252e-6
0.316, -6.128e-6
0.317, -6.007e-6
0.318, -5.891e-6
0.319, -5.774e-6
0.320, -5.661e-6
0.321, -5.552e-6
0.322, -5.442e-6
0.323, -5.335e-6
0.324, -5.232e-6
0.325, -5.128e-6
0.326, -5.029e-6
0.327, -4.933e-6
0.328, -4.832e-6
0.329, -4.740e-6
0.330, -4.647e-6
0.331, -4.551e-6
0.332, -4.458e-6
0.333, -4.371e-6
0.334, -4.283e-6
0.335, -4.191e-6
0.336, -4.106e-6
0.337, -4.022e-6
0.338, -3.934e-6
0.339, -3.851e-6
0.340, -3.769e-6
0.341, -3.682e-6
0.342, -3.604e-6
0.343, -3.523e-6
0.344, -3.440e-6
0.345, -3.362e-6
0.346, -3.287e-6
0.347, -3.208e-6
0.348, -3.129e-6
0.349, -3.056e-6
0.350, -2.980e-6
0.351, -2.905e-6
0.352, -2.832e-6
0.353, -2.760e-6
0.354, -2.685e-6
0.355, -2.613e-6
0.356, -2.540e-6
0.357, -2.467e-6
0.358, -2.397e-6
0.359, -2.326e-6
0.360, -2.255e-6
0.361, -2.185e-6
0.362, -2.117e-6
0.363, -2.046e-6
0.364, -1.978e-6
0.365, -1.913e-6
0.366, -1.845e-6
0.367, -1.775e-6
0.368, -1.709e-6
0.369, -1.643e-6
0.370, -1.575e-6
0.371, -1.510e-6
0.372, -1.443e-6
0.373, -1.375e-6
0.374, -1.312e-6
0.375, -1.248e-6
0.376, -1.179e-6
0.377, -1.115e-6
0.378, -1.051e-6
0.379, -9.857e-7
0.380, -9.206e-7
0.381, -8.569e-7
0.382, -7.933e-7
0.383, -7.275e-7
0.384, -6.637e-7
0.385, -6.018e-7
0.386, -5.365e-7
0.387, -4.723e-7
0.388, -4.108e-7
0.389, -3.448e-7
0.390, -2.831e-7
0.391, -2.203e-7
0.392, -1.548e-7
0.393, -9.212e-8
0.394, -2.880e-8
0.395, 3.631e-8
0.396, 1.008e-7
0.397, 1.631e-7
0.398, 2.273e-7
0.399, 2.929e-7
0.400, 3.579e-7
0.401, 4.233e-7
0.402, 4.904e-7
0.403, 5.534e-7
0.404, 6.157e-7
0.405, 6.848e-7
0.406, 7.496e-7
0.407, 8.135e-7
0.408, 8.807e-7
0.409, 9.402e-7
0.410, 9.677e-7
0.411, 1.051e-6
0.412, 1.125e-6
0.413, 1.193e-6
0.414, 1.264e-6
0.415, 1.334e-6
0.416, 1.401e-6
0.417, 1.472e-6
0.418, 1.546e-6
0.419, 1.613e-6
0.420, 1.682e-6
0.421, 1.760e-6
0.422, 1.829e-6
0.423, 1.900e-6
0.424, 1.976e-6
0.425, 2.048e-6
0.426, 2.121e-6
0.427, 2.195e-6
0.428, 2.269e-6
0.429, 2.342e-6
0.430, 2.418e-6
0.431, 2.498e-6
0.432, 2.575e-6
0.433, 2.653e-6
0.434, 2.736e-6
0.435, 2.815e-6
0.436, 2.891e-6
0.437, 2.976e-6
0.438, 3.061e-6
0.439, 3.142e-6
0.440, 3.231e-6
0.441, 3.318e-6
0.442, 3.403e-6
0.443, 3.492e-6
0.444, 3.584e-6
0.445, 3.669e-6
0.446, 3.759e-6
0.447, 3.856e-6
0.448, 3.949e-6
0.449, 4.041e-6
0.450, 4.144e-6
0.451, 4.239e-6
0.452, 4.335e-6
0.453, 4.441e-6
0.454, 4.540e-6
0.455, 4.644e-6
0.456, 4.753e-6
0.457, 4.859e-6
0.458, 4.965e-6
0.459, 5.076e-6
0.460, 5.191e-6
0.461, 5.306e-6
0.462, 5.421e-6
0.463, 5.539e-6
0.464, 5.658e-6
0.465, 5.774e-6
0.466, 5.905e-6
0.467, 6.025e-6
0.468, 6.149e-6
0.469, 6.278e-6
0.470, 6.405e-6
0.471, 6.534e-6
0.472, 6.672e-6
0.473, 6.808e-6
0.474, 6.946e-6
0.475, 7.090e-6
0.476, 7.236e-6
0.477, 7.380e-6
0.478, 7.527e-6
0.479, 7.680e-6
0.480, 7.826e-6
0.481, 7.979e-6
0.482, 8.146e-6
0.483, 8.299e-6
0.484, 8.456e-6
0.485, 8.628e-6
0.486, 8.794e-6
0.487, 8.960e-6
0.488, 9.133e-6
0.489, 9.304e-6
0.490, 9.479e-6
0.491, 9.657e-6
0.492, 9.846e-6
0.493, 1.002e-5
0.494, 1.021e-5
0.495, 1.040e-5
0.496, 1.059e-5
0.497, 1.078e-5
0.498, 1.100e-5
0.499, 1.119e-5
0.500, 1.139e-5
0.501, 1.160e-5
0.502, 1.180e-5
0.503, 1.201e-5
0.504, 1.222e-5
0.505, 1.243e-5
0.506, 1.265e-5
0.507, 1.287e-5
0.508, 1.309e-5
0.509, 1.332e-5
0.510, 1.354e-5
0.511, 1.377e-5
0.512, 1.401e-5
0.513, 1.425e-5
0.514, 1.449e-5
0.515, 1.472e-5
0.516, 1.495e-5
0.517, 1.520e-5
0.518, 1.544e-5
0.519, 1.567e-5
0.520, 1.592e-5
0.521, 1.617e-5
0.522, 1.642e-5
0.523, 1.667e-5
0.524, 1.693e-5
0.525, 1.717e-5
0.526, 1.743e-5
0.527, 1.770e-5
0.528, 1.795e-5
0.529, 1.821e-5
0.530, 1.848e-5
0.531, 1.873e-5
0.532, 1.900e-5
0.533, 1.927e-5
0.534, 1.954e-5
0.535, 1.981e-5
0.536, 2.008e-5
0.537, 2.035e-5
0.538, 2.061e-5
0.539, 2.089e-5
0.540, 2.118e-5
0.541, 2.145e-5
0.542, 2.172e-5
0.543, 2.203e-5
0.544, 2.231e-5
0.545, 2.259e-5
0.546, 2.289e-5
0.547, 2.318e-5
0.548, 2.346e-5
0.549, 2.377e-5
0.550, 2.408e-5
0.551, 2.438e-5
0.552, 2.468e-5
0.553, 2.501e-5
0.554, 2.532e-5
0.555, 2.563e-5
0.556, 2.597e-5
0.557, 2.628e-5
0.558, 2.660e-5
0.559, 2.697e-5
0.560, 2.732e-5
0.561, 2.767e-5
0.562, 2.806e-5
0.563, 2.843e-5
0.564, 2.883e-5
0.565, 2.925e-5
0.566, 2.967e-5
0.567, 3.012e-5
0.568, 3.057e-5
0.569, 3.105e-5
0.570, 3.154e-5
0.571, 3.204e-5
0.572, 3.258e-5
0.573, 3.310e-5
0.574, 3.364e-5
0.575, 3.419e-5
0.576, 3.473e-5
0.577, 3.526e-5
0.578, 3.582e-5
0.579, 3.636e-5
0.580, 3.689e-5
0.581, 3.742e-5
0.582, 3.793e-5
0.583, 3.845e-5
0.584, 3.895e-5
0.585, 3.945e-5
0.586, 3.993e-5
0.587, 4.040e-5
0.588, 4.087e-5
0.589, 4.130e-5
0.590, 4.173e-5
0.591, 4.216e-5
0.592, 4.255e-5
0.593, 4.294e-5
0.594, 4.333e-5
0.595, 4.369e-5
0.596, 4.403e-5
0.597, 4.437e-5
0.598, 4.468e-5
0.599, 4.497e-5
0.600, 4.525e-5
0.601, 4.552e-5
0.602, 4.576e-5
0.603, 4.599e-5
0.604, 4.621e-5
0.605, 4.640e-5
0.606, 4.658e-5
0.607, 4.674e-5
0.608, 4.689e-5
0.609, 4.702e-5
0.610, 4.714e-5
0.611, 4.724e-5
0.612, 4.731e-5
0.613, 4.739e-5
0.614, 4.745e-5
0.615, 4.755e-5
0.616, 4.757e-5
0.617, 4.757e-5
0.618, 4.755e-5
0.619, 4.754e-5
0.620, 4.750e-5
0.621, 4.746e-5
0.622, 4.741e-5
0.623, 4.736e-5
0.624, 4.728e-5
0.625, 4.719e-5
0.626, 4.711e-5
0.627, 4.702e-5
0.628, 4.690e-5
0.629, 4.680e-5
0.630, 4.668e-5
0.631, 4.655e-5
0.632, 4.642e-5
0.633, 4.628e-5
0.634, 4.614e-5
0.635, 4.600e-5
0.636, 4.586e-5
0.637, 4.570e-5
0.638, 4.554e-5
0.639, 4.539e-5
0.640, 4.523e-5
0.641, 4.507e-5
0.642, 4.491e-5
0.643, 4.474e-5
0.644, 4.457e-5
0.645, 4.441e-5
0.646, 4.424e-5
0.647, 4.407e-5
0.648, 4.391e-5
0.649, 4.374e-5
0.650, 4.358e-5
0.651, 4.341e-5
0.652, 4.325e-5
0.653, 4.308e-5
0.654, 4.292e-5
0.655, 4.276e-5
0.656, 4.261e-5
0.657, 4.244e-5
0.658, 4.229e-5
0.659, 4.213e-5
0.660, 4.197e-5
0.661, 4.183e-5
0.662, 4.167e-5
0.663, 4.153e-5
0.664, 4.138e-5
0.665, 4.124e-5
0.666, 4.110e-5
0.667, 4.096e-5
0.668, 4.083e-5
0.669, 4.069e-5
0.670, 4.056e-5
0.671, 4.042e-5
0.672, 4.029e-5
0.673, 4.017e-5
0.674, 4.004e-5
0.675, 3.992e-5
0.676, 3.979e-5
0.677, 3.968e-5
0.678, 3.956e-5
0.679, 3.944e-5
0.680, 3.934e-5
0.681, 3.922e-5
0.682, 3.912e-5
0.683, 3.901e-5
0.684, 3.891e-5
0.685, 3.880e-5
0.686, 3.870e-5
0.687, 3.861e-5
0.688, 3.851e-5
0.689, 3.842e-5
0.690, 3.833e-5
0.691, 3.823e-5
0.692, 3.814e-5
0.693, 3.806e-5
0.694, 3.797e-5
0.695, 3.788e-5
0.696, 3.781e-5
0.697, 3.772e-5
0.698, 3.764e-5
0.699, 3.757e-5
0.700, 3.749e-5
0.701, 3.742e-5
0.702, 3.735e-5
0.703, 3.728e-5
0.704, 3.721e-5
0.705, 3.714e-5
0.706, 3.707e-5
0.707, 3.701e-5
0.708, 3.694e-5
0.709, 3.688e-5
0.710, 3.682e-5
0.711, 3.676e-5
0.712, 3.670e-5
0.713, 3.664e-5
0.714, 3.659e-5
0.715, 3.653e-5
0.716, 3.648e-5
0.717, 3.643e-5
0.718, 3.638e-5
0.719, 3.633e-5
0.720, 3.628e-5
0.721, 3.623e-5
0.722, 3.619e-5
0.723, 3.614e-5
0.724, 3.609e-5
0.725, 3.605e-5
0.726, 3.601e-5
0.727, 3.596e-5
0.728, 3.593e-5
0.729, 3.589e-5
0.730, 3.584e-5
0.731, 3.581e-5
0.732, 3.577e-5
0.733, 3.573e-5
0.734, 3.570e-5
0.735, 3.567e-5
0.736, 3.563e-5
0.737, 3.560e-5
0.738, 3.557e-5
0.739, 3.553e-5
0.740, 3.550e-5
0.741, 3.548e-5
0.742, 3.545e-5
0.743, 3.542e-5
0.744, 3.539e-5
0.745, 3.537e-5
0.746, 3.534e-5
0.747, 3.532e-5
0.748, 3.529e-5
0.749, 3.527e-5
0.750, 3.524e-5
0.751, 3.522e-5
0.752, 3.520e-5
0.753, 3.518e-5
0.754, 3.516e-5
0.755, 3.514e-5
0.756, 3.512e-5
0.757, 3.511e-5
0.758, 3.509e-5
0.759, 3.507e-5
0.760, 3.506e-5
0.761, 3.504e-5
0.762, 3.502e-5
0.763, 3.501e-5
0.764, 3.500e-5
0.765, 3.498e-5
0.766, 3.497e-5
0.767, 3.496e-5
0.768, 3.495e-5
0.769, 3.494e-5
0.770, 3.493e-5
0.771, 3.493e-5
0.772, 3.492e-5
0.773, 3.491e-5
0.774, 3.490e-5
0.775, 3.489e-5
0.776, 3.489e-5
0.777, 3.488e-5
0.778, 3.488e-5
0.779, 3.487e-5
0.780, 3.487e-5
0.781, 3.486e-5
0.782, 3.486e-5
0.783, 3.486e-5
0.784, 3.486e-5
0.785, 3.486e-5
0.786, 3.486e-5
0.787, 3.486e-5
0.788, 3.486e-5
0.789, 3.486e-5
0.790, 3.486e-5
0.791, 3.486e-5
0.792, 3.487e-5
0.793, 3.487e-5
0.794, 3.487e-5
0.795, 3.488e-5
0.796, 3.489e-5
0.797, 3.489e-5
0.798, 3.490e-5
0.799, 3.491e-5
0.800, 3.491e-5
0.801, 3.492e-5
0.802, 3.493e-5
0.803, 3.494e-5
0.804, 3.495e-5
0.805, 3.496e-5
0.806, 3.497e-5
0.807, 3.498e-5
0.808, 3.500e-5
0.809, 3.501e-5
0.810, 3.502e-5
0.811, 3.504e-5
0.812, 3.505e-5
0.813, 3.507e-5
0.814, 3.508e-5
0.815, 3.510e-5
0.816, 3.512e-5
0.817, 3.513e-5
0.818, 3.516e-5
0.819, 3.513e-5
0.820, 3.513e-5
0.821, 3.518e-5
0.822, 3.520e-5
0.823, 3.523e-5
0.824, 3.526e-5
0.825, 3.528e-5
0.826, 3.530e-5
0.827, 3.533e-5
0.828, 3.535e-5
0.829, 3.538e-5
0.830, 3.541e-5
0.831, 3.543e-5
0.832, 3.546e-5
0.833, 3.549e-5
0.834, 3.552e-5
0.835, 3.554e-5
0.836, 3.557e-5
0.837, 3.561e-5
0.838, 3.564e-5
0.839, 3.566e-5
0.840, 3.570e-5
0.841, 3.573e-5
0.842, 3.577e-5
0.843, 3.580e-5
0.844, 3.584e-5
0.845, 3.587e-5
0.846, 3.591e-5
0.847, 3.594e-5
0.848, 3.598e-5
0.849, 3.601e-5
0.850, 3.605e-5
0.851, 3.609e-5
0.852, 3.613e-5
0.853, 3.617e-5
0.854, 3.621e-5
0.855, 3.625e-5
0.856, 3.629e-5
0.857, 3.633e-5
0.858, 3.638e-5
0.859, 3.642e-5
0.860, 3.647e-5
0.861, 3.650e-5
0.862, 3.655e-5
0.863, 3.660e-5
0.864, 3.664e-5
0.865, 3.668e-5
0.866, 3.674e-5
0.867, 3.678e-5
0.868, 3.682e-5
0.869, 3.688e-5
0.870, 3.692e-5
0.871, 3.697e-5
0.872, 3.702e-5
0.873, 3.706e-5
0.874, 3.711e-5
0.875, 3.716e-5
0.876, 3.721e-5
0.877, 3.725e-5
0.878, 3.731e-5
0.879, 3.735e-5
0.880, 3.740e-5
0.881, 3.745e-5
0.882, 3.751e-5
0.883, 3.756e-5
0.884, 3.761e-5
0.885, 3.766e-5
0.886, 3.771e-5
0.887, 3.776e-5
0.888, 3.781e-5
0.889, 3.786e-5
0.890, 3.791e-5
0.891, 3.796e-5
0.892, 3.801e-5
0.893, 3.806e-5
0.894, 3.811e-5
0.895, 3.817e-5
0.896, 3.821e-5
0.897, 3.826e-5
0.898, 3.832e-5
0.899, 3.837e-5
0.900, 3.812e-5
0.899, 3.725e-5
0.898, 3.664e-5
0.897, 3.616e-5
0.896, 3.575e-5
0.895, 3.538e-5
0.894, 3.503e-5
0.893, 3.471e-5
0.892, 3.441e-5
0.891, 3.412e-5
0.890, 3.385e-5
0.889, 3.359e-5
0.888, 3.334e-5
0.887, 3.310e-5
0.886, 3.286e-5
0.885, 3.263e-5
0.884, 3.241e-5
0.883, 3.219e-5
0.882, 3.199e-5
0.881, 3.178e-5
0.880, 3.158e-5
0.879, 3.139e-5
0.878, 3.120e-5
0.877, 3.101e-5
0.876, 3.083e-5
0.875, 3.065e-5
0.874, 3.049e-5
0.873, 3.032e-5
0.872, 3.015e-5
0.871, 2.999e-5
0.870, 2.983e-5
0.869, 2.967e-5
0.868, 2.951e-5
0.867, 2.936e-5
0.866, 2.921e-5
0.865, 2.907e-5
0.864, 2.892e-5
0.863, 2.878e-5
0.862, 2.864e-5
0.861, 2.851e-5
0.860, 2.838e-5
0.859, 2.824e-5
0.858, 2.812e-5
0.857, 2.799e-5
0.856, 2.786e-5
0.855, 2.774e-5
0.854, 2.762e-5
0.853, 2.750e-5
0.852, 2.739e-5
0.851, 2.727e-5
0.850, 2.716e-5
0.849, 2.704e-5
0.848, 2.693e-5
0.847, 2.683e-5
0.846, 2.671e-5
0.845, 2.661e-5
0.844, 2.650e-5
0.843, 2.640e-5
0.842, 2.630e-5
0.841, 2.620e-5
0.840, 2.610e-5
0.839, 2.600e-5
0.838, 2.590e-5
0.837, 2.581e-5
0.836, 2.572e-5
0.835, 2.562e-5
0.834, 2.553e-5
0.833, 2.544e-5
0.832, 2.535e-5
0.831, 2.526e-5
0.830, 2.517e-5
0.829, 2.508e-5
0.828, 2.500e-5
0.827, 2.491e-5
0.826, 2.483e-5
0.825, 2.474e-5
0.824, 2.465e-5
0.823, 2.457e-5
0.822, 2.449e-5
0.821, 2.441e-5
0.820, 2.433e-5
0.819, 2.432e-5
0.818, 2.421e-5
0.817, 2.413e-5
0.816, 2.404e-5
0.815, 2.396e-5
0.814, 2.388e-5
0.813, 2.381e-5
0.812, 2.373e-5
0.811, 2.365e-5
0.810, 2.358e-5
0.809, 2.351e-5
0.808, 2.343e-5
0.807, 2.336e-5
0.806, 2.328e-5
0.805, 2.321e-5
0.804, 2.314e-5
0.803, 2.306e-5
0.802, 2.299e-5
0.801, 2.292e-5
0.800, 2.285e-5
0.799, 2.278e-5
0.798, 2.271e-5
0.797, 2.264e-5
0.796, 2.257e-5
0.795, 2.250e-5
0.794, 2.244e-5
0.793, 2.237e-5
0.792, 2.230e-5
0.791, 2.223e-5
0.790, 2.216e-5
0.789, 2.209e-5
0.788, 2.203e-5
0.787, 2.196e-5
0.786, 2.190e-5
0.785, 2.183e-5
0.784, 2.176e-5
0.783, 2.170e-5
0.782, 2.163e-5
0.781, 2.156e-5
0.780, 2.150e-5
0.779, 2.143e-5
0.778, 2.137e-5
0.777, 2.130e-5
0.776, 2.123e-5
0.775, 2.117e-5
0.774, 2.111e-5
0.773, 2.105e-5
0.772, 2.098e-5
0.771, 2.092e-5
0.770, 2.086e-5
0.769, 2.079e-5
0.768, 2.073e-5
0.767, 2.067e-5
0.766, 2.060e-5
0.765, 2.054e-5
0.764, 2.048e-5
0.763, 2.041e-5
0.762, 2.035e-5
0.761, 2.029e-5
0.760, 2.022e-5
0.759, 2.016e-5
0.758, 2.010e-5
0.757, 2.003e-5
0.756, 1.997e-5
0.755, 1.991e-5
0.754, 1.985e-5
0.753, 1.978e-5
0.752, 1.972e-5
0.751, 1.966e-5
0.750, 1.959e-5
0.749, 1.953e-5
0.748, 1.948e-5
0.747, 1.941e-5
0.746, 1.935e-5
0.745, 1.929e-5
0.744, 1.922e-5
0.743, 1.916e-5
0.742, 1.910e-5
0.741, 1.903e-5
0.740, 1.897e-5
0.739, 1.891e-5
0.738, 1.884e-5
0.737, 1.878e-5
0.736, 1.872e-5
0.735, 1.866e-5
0.734, 1.859e-5
0.733, 1.853e-5
0.732, 1.847e-5
0.731, 1.840e-5
0.730, 1.834e-5
0.729, 1.828e-5
0.728, 1.821e-5
0.727, 1.815e-5
0.726, 1.808e-5
0.725, 1.802e-5
0.724, 1.796e-5
0.723, 1.789e-5
0.722, 1.782e-5
0.721, 1.776e-5
0.720, 1.770e-5
0.719, 1.763e-5
0.718, 1.756e-5
0.717, 1.749e-5
0.716, 1.743e-5
0.715, 1.736e-5
0.714, 1.730e-5
0.713, 1.723e-5
0.712, 1.716e-5
0.711, 1.709e-5
0.710, 1.703e-5
0.709, 1.696e-5
0.708, 1.689e-5
0.707, 1.682e-5
0.706, 1.675e-5
0.705, 1.668e-5
0.704, 1.661e-5
0.703, 1.655e-5
0.702, 1.647e-5
0.701, 1.640e-5
0.700, 1.633e-5
0.699, 1.626e-5
0.698, 1.619e-5
0.697, 1.612e-5
0.696, 1.604e-5
0.695, 1.597e-5
0.694, 1.590e-5
0.693, 1.582e-5
0.692, 1.574e-5
0.691, 1.567e-5
0.690, 1.559e-5
0.689, 1.551e-5
0.688, 1.544e-5
0.687, 1.536e-5
0.686, 1.527e-5
0.685, 1.520e-5
0.684, 1.512e-5
0.683, 1.503e-5
0.682, 1.496e-5
0.681, 1.487e-5
0.680, 1.479e-5
0.679, 1.470e-5
0.678, 1.462e-5
0.677, 1.453e-5
0.676, 1.445e-5
0.675, 1.436e-5
0.674, 1.427e-5
0.673, 1.418e-5
0.672, 1.409e-5
0.671, 1.400e-5
0.670, 1.390e-5
0.669, 1.380e-5
0.668, 1.371e-5
0.667, 1.361e-5
0.666, 1.351e-5
0.665, 1.341e-5
0.664, 1.330e-5
0.663, 1.320e-5
0.662, 1.310e-5
0.661, 1.299e-5
0.660, 1.288e-5
0.659, 1.278e-5
0.658, 1.267e-5
0.657, 1.255e-5
0.656, 1.244e-5
0.655, 1.232e-5
0.654, 1.220e-5
0.653, 1.209e-5
0.652, 1.197e-5
0.651, 1.184e-5
0.650, 1.171e-5
0.649, 1.158e-5
0.648, 1.145e-5
0.647, 1.132e-5
0.646, 1.118e-5
0.645, 1.104e-5
0.644, 1.090e-5
0.643, 1.077e-5
0.642, 1.062e-5
0.641, 1.047e-5
0.640, 1.032e-5
0.639, 1.017e-5
0.638, 1.001e-5
0.637, 9.854e-6
0.636, 9.697e-6
0.635, 9.523e-6
0.634, 9.360e-6
0.633, 9.192e-6
0.632, 9.013e-6
0.631, 8.839e-6
0.630, 8.658e-6
0.629, 8.471e-6
0.628, 8.281e-6
0.627, 8.092e-6
0.626, 7.899e-6
0.625, 7.696e-6
0.624, 7.497e-6
0.623, 7.295e-6
0.622, 7.080e-6
0.621, 6.868e-6
0.620, 6.659e-6
0.619, 6.432e-6
0.618, 6.216e-6
0.617, 5.993e-6
0.616, 5.758e-6
0.615, 5.520e-6
0.614, 5.249e-6
0.613, 5.018e-6
0.612, 4.778e-6
0.611, 4.532e-6
0.610, 4.285e-6
0.609, 4.026e-6
0.608, 3.768e-6
0.607, 3.513e-6
0.606, 3.233e-6
0.605, 2.967e-6
0.604, 2.697e-6
0.603, 2.411e-6
0.602, 2.131e-6
0.601, 1.858e-6
0.600, 1.574e-6
0.599, 1.287e-6
0.598, 1.003e-6
0.597, 7.102e-7
0.596, 4.086e-7
0.595, 1.179e-7
0.594, -1.798e-7
0.593, -4.872e-7
0.592, -7.905e-7
0.591, -1.093e-6
0.590, -1.418e-6
0.589, -1.728e-6
0.588, -2.028e-6
0.587, -2.353e-6
0.586, -2.671e-6
0.585, -2.980e-6
0.584, -3.306e-6
0.583, -3.623e-6
0.582, -3.933e-6
0.581, -4.258e-6
0.580, -4.591e-6
0.579, -4.907e-6
0.578, -5.225e-6
0.577, -5.556e-6
0.576, -5.881e-6
0.575, -6.201e-6
0.574, -6.535e-6
0.573, -6.862e-6
0.572, -7.178e-6
0.571, -7.522e-6
0.570, -7.849e-6
0.569, -8.178e-6
0.568, -8.531e-6
0.567, -8.865e-6
0.566, -9.201e-6
0.565, -9.553e-6
0.564, -9.908e-6
0.563, -1.027e-5
0.562, -1.064e-5
0.561, -1.100e-5
0.560, -1.134e-5
0.559, -1.170e-5
0.558, -1.208e-5
0.557, -1.244e-5
0.556, -1.279e-5
0.555, -1.318e-5
0.554, -1.355e-5
0.553, -1.391e-5
0.552, -1.429e-5
0.551, -1.467e-5
0.550, -1.503e-5
0.549, -1.541e-5
0.548, -1.580e-5
0.547, -1.616e-5
0.546, -1.653e-5
0.545, -1.691e-5
0.544, -1.726e-5
0.543, -1.759e-5
0.542, -1.794e-5
0.541, -1.827e-5
0.540, -1.857e-5
0.539, -1.890e-5
0.538, -1.918e-5
0.537, -1.945e-5
0.536, -1.975e-5
0.535, -2.002e-5
0.534, -2.027e-5
0.533, -2.051e-5
0.532, -2.075e-5
0.531, -2.096e-5
0.530, -2.116e-5
0.529, -2.138e-5
0.528, -2.155e-5
0.527, -2.170e-5
0.526, -2.188e-5
0.525, -2.203e-5
0.524, -2.217e-5
0.523, -2.231e-5
0.522, -2.242e-5
0.521, -2.253e-5
0.520, -2.265e-5
0.519, -2.274e-5
0.518, -2.282e-5
0.517, -2.290e-5
0.516, -2.299e-5
0.515, -2.306e-5
0.514, -2.311e-5
0.513, -2.318e-5
0.512, -2.326e-5
0.511, -2.330e-5
0.510, -2.335e-5
0.509, -2.340e-5
0.508, -2.343e-5
0.507, -2.348e-5
0.506, -2.352e-5
0.505, -2.356e-5
0.504, -2.359e-5
0.503, -2.363e-5
0.502, -2.365e-5
0.501, -2.366e-5
0.500, -2.368e-5
0.499, -2.369e-5
0.498, -2.370e-5
0.497, -2.372e-5
0.496, -2.371e-5
0.495, -2.371e-5
0.494, -2.370e-5
0.493, -2.369e-5
0.492, -2.367e-5
0.491, -2.367e-5
0.490, -2.364e-5
0.489, -2.363e-5
0.488, -2.362e-5
0.487, -2.359e-5
0.486, -2.356e-5
0.485, -2.354e-5
0.484, -2.351e-5
0.483, -2.347e-5
0.482, -2.344e-5
0.481, -2.340e-5
0.480, -2.335e-5
0.479, -2.330e-5
0.478, -2.325e-5
0.477, -2.320e-5
0.476, -2.313e-5
0.475, -2.308e-5
0.474, -2.301e-5
0.473, -2.293e-5
0.472, -2.286e-5
0.471, -2.278e-5
0.470, -2.270e-5
0.469, -2.262e-5
0.468, -2.253e-5
0.467, -2.245e-5
0.466, -2.236e-5
0.465, -2.228e-5
0.464, -2.219e-5
0.463, -2.209e-5
0.462, -2.202e-5
0.461, -2.192e-5
0.460, -2.183e-5
0.459, -2.175e-5
0.458, -2.165e-5
0.457, -2.156e-5
0.456, -2.147e-5
0.455, -2.138e-5
0.454, -2.129e-5
0.453, -2.120e-5
0.452, -2.110e-5
0.451, -2.101e-5
0.450, -2.091e-5
0.449, -2.081e-5
0.448, -2.071e-5
0.447, -2.060e-5
0.446, -2.049e-5
0.445, -2.038e-5
0.444, -2.026e-5
0.443, -2.014e-5
0.442, -2.001e-5
0.441, -1.989e-5
0.440, -1.976e-5
0.439, -1.963e-5
0.438, -1.950e-5
0.437, -1.937e-5
0.436, -1.923e-5
0.435, -1.909e-5
0.434, -1.896e-5
0.433, -1.882e-5
0.432, -1.868e-5
0.431, -1.854e-5
0.430, -1.841e-5
0.429, -1.827e-5
0.428, -1.813e-5
0.427, -1.800e-5
0.426, -1.786e-5
0.425, -1.773e-5
0.424, -1.761e-5
0.423, -1.747e-5
0.422, -1.735e-5
0.421, -1.722e-5
0.420, -1.709e-5
0.419, -1.697e-5
0.418, -1.684e-5
0.417, -1.672e-5
0.416, -1.660e-5
0.415, -1.648e-5
0.414, -1.637e-5
0.413, -1.625e-5
0.412, -1.613e-5
0.411, -1.603e-5
0.410, -1.589e-5
0.409, -1.576e-5
0.408, -1.567e-5
0.407, -1.557e-5
0.406, -1.547e-5
0.405, -1.537e-5
0.404, -1.527e-5
0.403, -1.517e-5
0.402, -1.507e-5
0.401, -1.498e-5
0.400, -1.488e-5
0.399, -1.479e-5
0.398, -1.470e-5
0.397, -1.461e-5
0.396, -1.452e-5
0.395, -1.443e-5
0.394, -1.435e-5
0.393, -1.426e-5
0.392, -1.418e-5
0.391, -1.410e-5
0.390, -1.402e-5
0.389, -1.394e-5
0.388, -1.386e-5
0.387, -1.378e-5
0.386, -1.371e-5
0.385, -1.363e-5
0.384, -1.356e-5
0.383, -1.349e-5
0.382, -1.342e-5
0.381, -1.335e-5
0.380, -1.328e-5
0.379, -1.322e-5
0.378, -1.315e-5
0.377, -1.308e-5
0.376, -1.302e-5
0.375, -1.296e-5
0.374, -1.289e-5
0.373, -1.284e-5
0.372, -1.277e-5
0.371, -1.271e-5
0.370, -1.266e-5
0.369, -1.260e-5
0.368, -1.255e-5
0.367, -1.249e-5
0.366, -1.244e-5
0.365, -1.238e-5
0.364, -1.233e-5
0.363, -1.228e-5
0.362, -1.223e-5
0.361, -1.218e-5
0.360, -1.213e-5
0.359, -1.208e-5
0.358, -1.204e-5
0.357, -1.199e-5
0.356, -1.194e-5
0.355, -1.190e-5
0.354, -1.185e-5
0.353, -1.181e-5
0.352, -1.177e-5
0.351, -1.172e-5
0.350, -1.169e-5
0.349, -1.165e-5
0.348, -1.160e-5
0.347, -1.157e-5
0.346, -1.153e-5
0.345, -1.149e-5
0.344, -1.146e-5
0.343, -1.142e-5
0.342, -1.138e-5
0.341, -1.135e-5
0.340, -1.131e-5
0.339, -1.128e-5
0.338, -1.124e-5
0.337, -1.121e-5
0.336, -1.118e-5
0.335, -1.115e-5
0.334, -1.112e-5
0.333, -1.109e-5
0.332, -1.105e-5
0.331, -1.103e-5
0.330, -1.100e-5
0.329, -1.097e-5
0.328, -1.094e-5
0.327, -1.092e-5
0.326, -1.089e-5
0.325, -1.086e-5
0.324, -1.084e-5
0.323, -1.081e-5
0.322, -1.079e-5
0.321, -1.076e-5
0.320, -1.074e-5
0.319, -1.071e-5
0.318, -1.069e-5
0.317, -1.067e-5
0.316, -1.065e-5
0.315, -1.063e-5
0.314, -1.060e-5
0.313, -1.058e-5
0.312, -1.056e-5
0.311, -1.054e-5
0.310, -1.052e-5
0.309, -1.050e-5
0.308, -1.049e-5
0.307, -1.048e-5
0.306, -1.046e-5
0.305, -1.044e-5
0.304, -1.042e-5
0.303, -1.040e-5
0.302, -1.039e-5
0.301, -1.037e-5
0.300, -1.016e-5
0.301, -9.627e-6
0.302, -9.288e-6
0.303, -9.025e-6
0.304, -8.802e-6
0.305, -8.603e-6
0.306, -8.416e-6
0.307, -8.240e-6
0.308, -8.076e-6
0.309, -7.919e-6
0.310, -7.772e-6
0.311, -7.629e-6
0.312, -7.489e-6
0.313, -7.357e-6
0.314, -7.227e-6
0.315, -7.101e-6
0.316, -6.978e-6
0.317, -6.858e-6
0.318, -6.742e-6
0.319, -6.623e-6
0.320, -6.514e-6
0.321, -6.404e-6
0.322, -6.293e-6
0.323, -6.189e-6
0.324, -6.084e-6
0.325, -5.980e-6
0.326, -5.883e-6
0.327, -5.787e-6
0.328, -5.684e-6
0.329, -5.590e-6
0.330, -5.499e-6
0.331, -5.405e-6
0.332, -5.314e-6
0.333, -5.225e-6
0.334, -5.135e-6
0.335, -5.047e-6
0.336, -4.964e-6
0.337, -4.878e-6
0.338, -4.793e-6
0.339, -4.713e-6
0.340, -4.631e-6
0.341, -4.544e-6
0.342, -4.467e-6
0.343, -4.388e-6
0.344, -4.305e-6
0.345, -4.227e-6
0.346, -4.150e-6
0.347, -4.072e-6
0.348, -3.996e-6
0.349, -3.921e-6
0.350, -3.847e-6
0.351, -3.769e-6
0.352, -3.698e-6
0.353, -3.628e-6
0.354, -3.553e-6
0.355, -3.483e-6
0.356, -3.412e-6
0.357, -3.338e-6
0.358, -3.271e-6
0.359, -3.203e-6
0.360, -3.132e-6
0.361, -3.063e-6
0.362, -2.997e-6
0.363, -2.926e-6
0.364, -2.858e-6
0.365, -2.792e-6
0.366, -2.726e-6
0.367, -2.657e-6
0.368, -2.591e-6
0.369, -2.527e-6
0.370, -2.459e-6
0.371, -2.394e-6
0.372, -2.330e-6
0.373, -2.261e-6
0.374, -2.200e-6
0.375, -2.136e-6
0.376, -2.070e-6
0.377, -2.006e-6
0.378, -1.946e-6
0.379, -1.880e-6
0.380, -1.817e-6
0.381, -1.755e-6
0.382, -1.694e-6
0.383, -1.629e-6
0.384, -1.568e-6
0.385, -1.506e-6
0.386, -1.442e-6
0.387, -1.380e-6
0.388, -1.318e-6
0.389, -1.253e-6
0.390, -1.193e-6
0.391, -1.132e-6
0.392, -1.067e-6
0.393, -1.003e-6
0.394, -9.435e-7
0.395, -8.807e-7
0.396, -8.172e-7
0.397, -7.561e-7
0.398, -6.942e-7
0.399, -6.309e-7
0.400, -5.690e-7
0.401, -5.083e-7
0.402, -4.439e-7
0.403, -3.849e-7
0.404, -3.225e-7
0.405, -2.560e-7
0.406, -1.936e-7
0.407, -1.316e-7
0.408, -6.743e-8
0.409, -6.267e-9
0.410, 1.909e-8
0.411, 1.001e-7
0.412, 1.712e-7
0.413, 2.387e-7
0.414, 3.047e-7
0.415, 3.739e-7
0.416, 4.395e-7
0.417, 5.038e-7
0.418, 5.738e-7
0.419, 6.389e-7
0.420, 7.074e-7
0.421, 7.787e-7
0.422, 8.456e-7
0.423, 9.144e-7
0.424, 9.865e-7
0.425, 1.053e-6
0.426, 1.122e-6
0.427, 1.194e-6
0.428, 1.263e-6
0.429, 1.334e-6
0.430, 1.407e-6
0.431, 1.481e-6
0.432, 1.554e-6
0.433, 1.626e-6
0.434, 1.705e-6
0.435, 1.778e-6
0.436, 1.853e-6
0.437, 1.936e-6
0.438, 2.013e-6
0.439, 2.088e-6
0.440, 2.173e-6
0.441, 2.254e-6
0.442, 2.332e-6
0.443, 2.417e-6
0.444, 2.503e-6
0.445, 2.582e-6
0.446, 2.667e-6
0.447, 2.758e-6
0.448, 2.843e-6
0.449, 2.930e-6
0.450, 3.023e-6
0.451, 3.111e-6
0.452, 3.198e-6
0.453, 3.300e-6
0.454, 3.389e-6
0.455, 3.486e-6
0.456, 3.584e-6
0.457, 3.681e-6
0.458, 3.781e-6
0.459, 3.885e-6
0.460, 3.991e-6
0.461, 4.097e-6
0.462, 4.202e-6
0.463, 4.313e-6
0.464, 4.420e-6
0.465, 4.530e-6
0.466, 4.646e-6
0.467, 4.755e-6
0.468, 4.872e-6
0.469, 4.992e-6
0.470, 5.107e-6
0.471, 5.227e-6
0.472, 5.356e-6
0.473, 5.480e-6
0.474, 5.608e-6
0.475, 5.736e-6
0.476, 5.869e-6
0.477, 6.001e-6
0.478, 6.136e-6
0.479, 6.280e-6
0.480, 6.413e-6
0.481, 6.555e-6
0.482, 6.708e-6
0.483, 6.851e-6
0.484, 6.995e-6
0.485, 7.154e-6
0.486, 7.301e-6
0.487, 7.457e-6
0.488, 7.618e-6
0.489, 7.780e-6
0.490, 7.938e-6
0.491, 8.102e-6
0.492, 8.269e-6
0.493, 8.435e-6
0.494, 8.607e-6
0.495, 8.789e-6
0.496, 8.962e-6
0.497, 9.134e-6
0.498, 9.327e-6
0.499, 9.511e-6
0.500, 9.694e-6
0.501, 9.891e-6
0.502, 1.008e-5
0.503, 1.027e-5
0.504, 1.047e-5
0.505, 1.068e-5
0.506, 1.087e-5
0.507, 1.108e-5
0.508, 1.129e-5
0.509, 1.150e-5
0.510, 1.171e-5
0.511, 1.193e-5
0.512, 1.216e-5
0.513, 1.239e-5
0.514, 1.261e-5
0.515, 1.283e-5
0.516, 1.304e-5
0.517, 1.328e-5
0.518, 1.351e-5
0.519, 1.374e-5
0.520, 1.397e-5
0.521, 1.421e-5
0.522, 1.445e-5
0.523, 1.470e-5
0.524, 1.494e-5
0.525, 1.517e-5
0.526, 1.542e-5
0.527, 1.568e-5
0.528, 1.592e-5
0.529, 1.617e-5
0.530, 1.643e-5
0.531, 1.668e-5
0.532, 1.693e-5
0.533, 1.720e-5
0.534, 1.746e-5
0.535, 1.771e-5
0.536, 1.798e-5
0.537, 1.824e-5
0.538, 1.849e-5
0.539, 1.876e-5
0.540, 1.903e-5
0.541, 1.929e-5
0.542, 1.957e-5
0.543, 1.985e-5
0.544, 2.011e-5
0.545, 2.038e-5
0.546, 2.066e-5
0.547, 2.094e-5
0.548, 2.121e-5
0.549, 2.150e-5
0.550, 2.178e-5
0.551, 2.205e-5
0.552, 2.235e-5
0.553, 2.265e-5
0.554, 2.293e-5
0.555, 2.323e-5
0.556, 2.353e-5
0.557, 2.382e-5
0.558, 2.411e-5
0.559, 2.444e-5
0.560, 2.473e-5
0.561, 2.504e-5
0.562, 2.537e-5
0.563, 2.568e-5
0.564, 2.601e-5
0.565, 2.635e-5
0.566, 2.667e-5
0.567, 2.701e-5
0.568, 2.735e-5
0.569, 2.771e-5
0.570, 2.807e-5
0.571, 2.844e-5
0.572, 2.883e-5
0.573, 2.922e-5
0.574, 2.962e-5
0.575, 3.004e-5
0.576, 3.047e-5
0.577, 3.091e-5
0.578, 3.138e-5
0.579, 3.184e-5
0.580, 3.231e-5
0.581, 3.282e-5
0.582, 3.332e-5
0.583, 3.383e-5
0.584, 3.436e-5
0.585, 3.488e-5
0.586, 3.539e-5
0.587, 3.591e-5
0.588, 3.644e-5
0.589, 3.694e-5
0.590, 3.743e-5
0.591, 3.793e-5
0.592, 3.841e-5
0.593, 3.887e-5
0.594, 3.933e-5
0.595, 3.977e-5
0.596, 4.019e-5
0.597, 4.062e-5
0.598, 4.103e-5
0.599, 4.140e-5
0.600, 4.177e-5
0.601, 4.214e-5
0.602, 4.247e-5
0.603, 4.280e-5
0.604, 4.312e-5
0.605, 4.341e-5
0.606, 4.369e-5
0.607, 4.397e-5
0.608, 4.421e-5
0.609, 4.443e-5
0.610, 4.467e-5
0.611, 4.487e-5
0.612, 4.505e-5
0.613, 4.522e-5
0.614, 4.539e-5
0.615, 4.558e-5
0.616, 4.569e-5
0.617, 4.579e-5
0.618, 4.586e-5
0.619, 4.593e-5
0.620, 4.601e-5
0.621, 4.605e-5
0.622, 4.607e-5
0.623, 4.609e-5
0.624, 4.609e-5
0.625, 4.607e-5
0.626, 4.606e-5
0.627, 4.602e-5
0.628, 4.597e-5
0.629, 4.593e-5
0.630, 4.586e-5
0.631, 4.578e-5
0.632, 4.570e-5
0.633, 4.562e-5
0.634, 4.552e-5
0.635, 4.542e-5
0.636, 4.531e-5
0.637, 4.519e-5
0.638, 4.506e-5
0.639, 4.494e-5
0.640, 4.480e-5
0.641, 4.465e-5
0.642, 4.452e-5
0.643, 4.437e-5
0.644, 4.422e-5
0.645, 4.408e-5
0.646, 4.392e-5
0.647, 4.376e-5
0.648, 4.361e-5
0.649, 4.345e-5
0.650, 4.328e-5
0.651, 4.312e-5
0.652, 4.296e-5
0.653, 4.280e-5
0.654, 4.263e-5
0.655, 4.248e-5
0.656, 4.231e-5
0.657, 4.215e-5
0.658, 4.199e-5
0.659, 4.183e-5
0.660, 4.166e-5
0.661, 4.152e-5
0.662, 4.136e-5
0.663, 4.120e-5
0.664, 4.105e-5
0.665, 4.090e-5
0.666, 4.075e-5
0.667, 4.060e-5
0.668, 4.046e-5
0.669, 4.031e-5
0.670, 4.017e-5
0.671, 4.003e-5
0.672, 3.989e-5
0.673, 3.974e-5
0.674, 3.961e-5
0.675, 3.948e-5
0.676, 3.935e-5
0.677, 3.922e-5
0.678, 3.909e-5
0.679, 3.896e-5
0.680, 3.884e-5
0.681, 3.872e-5
0.682, 3.860e-5
0.683, 3.849e-5
0.684, 3.838e-5
0.685, 3.826e-5
0.686, 3.815e-5
0.687, 3.805e-5
0.688, 3.794e-5
0.689, 3.783e-5
0.690, 3.773e-5
0.691, 3.763e-5
0.692, 3.753e-5
0.693, 3.744e-5
0.694, 3.734e-5
0.695, 3.725e-5
0.696, 3.716e-5
0.697, 3.707e-5
0.698, 3.698e-5
0.699, 3.689e-5
0.700, 3.681e-5
0.701, 3.672e-5
0.702, 3.664e-5
0.703, 3.656e-5
0.704, 3.649e-5
0.705, 3.641e-5
0.706, 3.634e-5
0.707, 3.627e-5
0.708, 3.619e-5
0.709, 3.613e-5
0.710, 3.606e-5
0.711, 3.599e-5
0.712, 3.593e-5
0.713, 3.586e-5
0.714, 3.580e-5
0.715, 3.574e-5
0.716, 3.568e-5
0.717, 3.563e-5
0.718, 3.557e-5
0.719, 3.551e-5
0.720, 3.545e-5
0.721, 3.540e-5
0.722, 3.535e-5
0.723, 3.529e-5
0.724, 3.524e-5
0.725, 3.520e-5
0.726, 3.515e-5
0.727, 3.510e-5
0.728, 3.506e-5
0.729, 3.501e-5
0.730, 3.497e-5
0.731, 3.493e-5
0.732, 3.488e-5
0.733, 3.484e-5
0.734, 3.480e-5
0.735, 3.477e-5
0.736, 3.472e-5
0.737, 3.469e-5
0.738, 3.465e-5
0.739, 3.461e-5
0.740, 3.458e-5
0.741, 3.455e-5
0.742, 3.451e-5
0.743, 3.448e-5
0.744, 3.445e-5
0.745, 3.442e-5
0.746, 3.439e-5
0.747, 3.436e-5
0.748, 3.434e-5
0.749, 3.431e-5
0.750, 3.428e-5
0.751, 3.426e-5
0.752, 3.423e-5
0.753, 3.421e-5
0.754, 3.419e-5
0.755, 3.416e-5
0.756, 3.414e-5
0.757, 3.412e-5
0.758, 3.410e-5
0.759, 3.407e-5
0.760, 3.406e-5
0.761, 3.404e-5
0.762, 3.402e-5
0.763, 3.400e-5
0.764, 3.399e-5
0.765, 3.397e-5
0.766, 3.396e-5
0.767, 3.394e-5
0.768, 3.393e-5
0.769, 3.392e-5
0.770, 3.391e-5
0.771, 3.389e-5
0.772, 3.388e-5
0.773, 3.388e-5
0.774, 3.386e-5
0.775, 3.385e-5
0.776, 3.384e-5
0.777, 3.383e-5
0.778, 3.382e-5
0.779, 3.381e-5
0.780, 3.381e-5
0.781, 3.380e-5
0.782, 3.380e-5
0.783, 3.379e-5
0.784, 3.379e-5
0.785, 3.379e-5
0.786, 3.378e-5
0.787, 3.378e-5
0.788, 3.378e-5
0.789, 3.378e-5
0.790, 3.378e-5
0.791, 3.378e-5
0.792, 3.378e-5
0.793, 3.378e-5
0.794, 3.378e-5
0.795, 3.378e-5
0.796, 3.379e-5
0.797, 3.379e-5
0.798, 3.379e-5
0.799, 3.380e-5
0.800, 3.380e-5
0.801, 3.380e-5
0.802, 3.381e-5
0.803, 3.382e-5
0.804, 3.382e-5
0.805, 3.383e-5
0.806, 3.384e-5
0.807, 3.385e-5
0.808, 3.386e-5
0.809, 3.387e-5
0.810, 3.388e-5
0.811, 3.390e-5
0.812, 3.391e-5
0.813, 3.392e-5
0.814, 3.393e-5
0.815, 3.395e-5
0.816, 3.396e-5
0.817, 3.397e-5
0.818, 3.399e-5
0.819, 3.397e-5
0.820, 3.397e-5
0.821, 3.400e-5
0.822, 3.403e-5
0.823, 3.405e-5
0.824, 3.407e-5
0.825, 3.409e-5
0.826, 3.411e-5
0.827, 3.413e-5
0.828, 3.416e-5
0.829, 3.418e-5
0.830, 3.420e-5
0.831, 3.423e-5
0.832, 3.425e-5
0.833, 3.428e-5
0.834, 3.431e-5
0.835, 3.433e-5
0.836, 3.436e-5
0.837, 3.439e-5
0.838, 3.441e-5
0.839, 3.444e-5
0.840, 3.447e-5
0.841, 3.450e-5
0.842, 3.453e-5
0.843, 3.456e-5
0.844, 3.459e-5
0.845, 3.462e-5
0.846, 3.465e-5
0.847, 3.469e-5
0.848, 3.472e-5
0.849, 3.475e-5
0.850, 3.479e-5
0.851, 3.483e-5
0.852, 3.486e-5
0.853, 3.490e-5
0.854, 3.494e-5
0.855, 3.498e-5
0.856, 3.502e-5
0.857, 3.506e-5
0.858, 3.510e-5
0.859, 3.514e-5
0.860, 3.518e-5
0.861, 3.522e-5
0.862, 3.526e-5
0.863, 3.530e-5
0.864, 3.534e-5
0.865, 3.538e-5
0.866, 3.543e-5
0.867, 3.547e-5
0.868, 3.552e-5
0.869, 3.557e-5
0.870, 3.561e-5
0.871, 3.566e-5
0.872, 3.571e-5
0.873, 3.575e-5
0.874, 3.580e-5
0.875, 3.585e-5
0.876, 3.589e-5
0.877, 3.594e-5
0.878, 3.599e-5
0.879, 3.604e-5
0.880, 3.609e-5
0.881, 3.613e-5
0.882, 3.619e-5
0.883, 3.623e-5
0.884, 3.628e-5
0.885, 3.634e-5
0.886, 3.638e-5
0.887, 3.643e-5
0.888, 3.648e-5
0.889, 3.653e-5
0.890, 3.658e-5
0.891, 3.663e-5
0.892, 3.668e-5
0.893, 3.673e-5
0.894, 3.679e-5
0.895, 3.684e-5
0.896, 3.689e-5
0.897, 3.694e-5
0.898, 3.700e-5
0.899, 3.705e-5
0.900, 3.680e-5
0.899, 3.594e-5
0.898, 3.533e-5
0.897, 3.486e-5
0.896, 3.445e-5
0.895, 3.409e-5
0.894, 3.375e-5
0.893, 3.344e-5
0.892, 3.314e-5
0.891, 3.285e-5
0.890, 3.259e-5
0.889, 3.233e-5
0.888, 3.208e-5
0.887, 3.185e-5
0.886, 3.162e-5
0.885, 3.139e-5
0.884, 3.118e-5
0.883, 3.097e-5
0.882, 3.077e-5
0.881, 3.056e-5
0.880, 3.037e-5
0.879, 3.018e-5
0.878, 3.000e-5
0.877, 2.982e-5
0.876, 2.965e-5
0.875, 2.947e-5
0.874, 2.930e-5
0.873, 2.914e-5
0.872, 2.897e-5
0.871, 2.881e-5
0.870, 2.866e-5
0.869, 2.851e-5
0.868, 2.836e-5
0.867, 2.821e-5
0.866, 2.807e-5
0.865, 2.792e-5
0.864, 2.779e-5
0.863, 2.765e-5
0.862, 2.751e-5
0.861, 2.739e-5
0.860, 2.726e-5
0.859, 2.713e-5
0.858, 2.701e-5
0.857, 2.689e-5
0.856, 2.676e-5
0.855, 2.665e-5
0.854, 2.653e-5
0.853, 2.641e-5
0.852, 2.630e-5
0.851, 2.619e-5
0.850, 2.607e-5
0.849, 2.596e-5
0.848, 2.586e-5
0.847, 2.575e-5
0.846, 2.564e-5
0.845, 2.554e-5
0.844, 2.544e-5
0.843, 2.534e-5
0.842, 2.524e-5
0.841, 2.515e-5
0.840, 2.505e-5
0.839, 2.496e-5
0.838, 2.487e-5
0.837, 2.477e-5
0.836, 2.468e-5
0.835, 2.459e-5
0.834, 2.450e-5
0.833, 2.441e-5
0.832, 2.432e-5
0.831, 2.424e-5
0.830, 2.415e-5
0.829, 2.406e-5
0.828, 2.398e-5
0.827, 2.389e-5
0.826, 2.381e-5
0.825, 2.373e-5
0.824, 2.364e-5
0.823, 2.356e-5
0.822, 2.349e-5
0.821, 2.340e-5
0.820, 2.333e-5
0.819, 2.332e-5
0.818, 2.322e-5
0.817, 2.313e-5
0.816, 2.305e-5
0.815, 2.297e-5
0.814, 2.289e-5
0.813, 2.282e-5
0.812, 2.274e-5
0.811, 2.267e-5
0.810, 2.260e-5
0.809, 2.252e-5
0.808, 2.245e-5
0.807, 2.238e-5
0.806, 2.230e-5
0.805, 2.223e-5
0.804, 2.216e-5
0.803, 2.209e-5
0.802, 2.202e-5
0.801, 2.195e-5
0.800, 2.188e-5
0.799, 2.181e-5
0.798, 2.174e-5
0.797, 2.168e-5
0.796, 2.161e-5
0.795, 2.153e-5
0.794, 2.147e-5
0.793, 2.141e-5
0.792, 2.134e-5
0.791, 2.127e-5
0.790, 2.121e-5
0.789, 2.114e-5
0.788, 2.107e-5
0.787, 2.101e-5
0.786, 2.095e-5
0.785, 2.088e-5
0.784, 2.081e-5
0.783, 2.075e-5
0.782, 2.068e-5
0.781, 2.062e-5
0.780, 2.056e-5
0.779, 2.049e-5
0.778, 2.043e-5
0.777, 2.036e-5
0.776, 2.030e-5
0.775, 2.024e-5
0.774, 2.017e-5
0.773, 2.011e-5
0.772, 2.005e-5
0.771, 1.998e-5
0.770, 1.992e-5
0.769, 1.986e-5
0.768, 1.980e-5
0.767, 1.973e-5
0.766, 1.967e-5
0.765, 1.961e-5
0.764, 1.955e-5
0.763, 1.948e-5
0.762, 1.943e-5
0.761, 1.936e-5
0.760, 1.930e-5
0.759, 1.924e-5
0.758, 1.918e-5
0.757, 1.911e-5
0.756, 1.905e-5
0.755, 1.899e-5
0.754, 1.893e-5
0.753, 1.886e-5
0.752, 1.880e-5
0.751, 1.874e-5
0.750, 1.868e-5
0.749, 1.862e-5
0.748, 1.856e-5
0.747, 1.849e-5
0.746, 1.844e-5
0.745, 1.837e-5
0.744, 1.831e-5
0.743, 1.825e-5
0.742, 1.819e-5
0.741, 1.812e-5
0.740, 1.806e-5
0.739, 1.800e-5
0.738, 1.794e-5
0.737, 1.788e-5
0.736, 1.781e-5
0.735, 1.775e-5
0.734, 1.769e-5
0.733, 1.762e-5
0.732, 1.756e-5
0.731, 1.749e-5
0.730, 1.743e-5
0.729, 1.737e-5
0.728, 1.731e-5
0.727, 1.725e-5
0.726, 1.718e-5
0.725, 1.711e-5
0.724, 1.705e-5
0.723, 1.699e-5
0.722, 1.693e-5
0.721, 1.686e-5
0.720, 1.679e-5
0.719, 1.673e-5
0.718, 1.666e-5
0.717, 1.659e-5
0.716, 1.652e-5
0.715, 1.646e-5
0.714, 1.639e-5
0.713, 1.633e-5
0.712, 1.626e-5
0.711, 1.619e-5
0.710, 1.612e-5
0.709, 1.605e-5
0.708, 1.598e-5
0.707, 1.592e-5
0.706, 1.585e-5
0.705, 1.577e-5
0.704, 1.571e-5
0.703, 1.564e-5
0.702, 1.556e-5
0.701, 1.550e-5
0.700, 1.542e-5
0.699, 1.535e-5
0.698, 1.528e-5
0.697, 1.520e-5
0.696, 1.513e-5
0.695, 1.505e-5
0.694, 1.498e-5
0.693, 1.490e-5
0.692, 1.482e-5
0.691, 1.475e-5
0.690, 1.466e-5
0.689, 1.458e-5
0.688, 1.451e-5
0.687, 1.443e-5
0.686, 1.434e-5
0.685, 1.426e-5
0.684, 1.418e-5
0.683, 1.410e-5
0.682, 1.402e-5
0.681, 1.393e-5
0.680, 1.384e-5
0.679, 1.376e-5
0.678, 1.367e-5
0.677, 1.358e-5
0.676, 1.349e-5
0.675, 1.339e-5
0.674, 1.330e-5
0.673, 1.320e-5
0.672, 1.311e-5
0.671, 1.301e-5
0.670, 1.291e-5
0.669, 1.282e-5
0.668, 1.272e-5
0.667, 1.261e-5
0.666, 1.251e-5
0.665, 1.240e-5
0.664, 1.229e-5
0.663, 1.219e-5
0.662, 1.208e-5
0.661, 1.196e-5
0.660, 1.185e-5
0.659, 1.174e-5
0.658, 1.162e-5
0.657, 1.150e-5
0.656, 1.138e-5
0.655, 1.126e-5
0.654, 1.112e-5
0.653, 1.100e-5
0.652, 1.087e-5
0.651, 1.073e-5
0.650, 1.060e-5
0.649, 1.047e-5
0.648, 1.032e-5
0.647, 1.018e-5
0.646, 1.004e-5
0.645, 9.892e-6
0.644, 9.741e-6
0.643, 9.593e-6
0.642, 9.439e-6
0.641, 9.277e-6
0.640, 9.121e-6
0.639, 8.962e-6
0.638, 8.789e-6
0.637, 8.617e-6
0.636, 8.449e-6
0.635, 8.265e-6
0.634, 8.087e-6
0.633, 7.907e-6
0.632, 7.718e-6
0.631, 7.528e-6
0.630, 7.338e-6
0.629, 7.135e-6
0.628, 6.939e-6
0.627, 6.740e-6
0.626, 6.534e-6
0.625, 6.324e-6
0.624, 6.110e-6
0.623, 5.899e-6
0.622, 5.672e-6
0.621, 5.448e-6
0.620, 5.228e-6
0.619, 4.983e-6
0.618, 4.757e-6
0.617, 4.516e-6
0.616, 4.266e-6
0.615, 4.012e-6
0.614, 3.723e-6
0.613, 3.480e-6
0.612, 3.228e-6
0.611, 2.976e-6
0.610, 2.714e-6
0.609, 2.440e-6
0.608, 2.180e-6
0.607, 1.915e-6
0.606, 1.633e-6
0.605, 1.365e-6
0.604, 1.078e-6
0.603, 7.914e-7
0.602, 5.147e-7
0.601, 2.301e-7
0.600, -6.367e-8
0.599, -3.532e-7
0.598, -6.494e-7
0.597, -9.455e-7
0.596, -1.253e-6
0.595, -1.549e-6
0.594, -1.854e-6
0.593, -2.172e-6
0.592, -2.470e-6
0.591, -2.776e-6
0.590, -3.099e-6
0.589, -3.403e-6
0.588, -3.702e-6
0.587, -4.022e-6
0.586, -4.326e-6
0.585, -4.639e-6
0.584, -4.968e-6
0.583, -5.275e-6
0.582, -5.580e-6
0.581, -5.905e-6
0.580, -6.227e-6
0.579, -6.555e-6
0.578, -6.872e-6
0.577, -7.208e-6
0.576, -7.536e-6
0.575, -7.858e-6
0.574, -8.201e-6
0.573, -8.540e-6
0.572, -8.869e-6
0.571, -9.220e-6
0.570, -9.551e-6
0.569, -9.887e-6
0.568, -1.025e-5
0.567, -1.060e-5
0.566, -1.095e-5
0.565, -1.130e-5
0.564, -1.166e-5
0.563, -1.202e-5
0.562, -1.239e-5
0.561, -1.276e-5
0.560, -1.311e-5
0.559, -1.348e-5
0.558, -1.387e-5
0.557, -1.423e-5
0.556, -1.459e-5
0.555, -1.499e-5
0.554, -1.535e-5
0.553, -1.572e-5
0.552, -1.609e-5
0.551, -1.645e-5
0.550, -1.679e-5
0.549, -1.714e-5
0.548, -1.750e-5
0.547, -1.784e-5
0.546, -1.815e-5
0.545, -1.847e-5
0.544, -1.878e-5
0.543, -1.907e-5
0.542, -1.936e-5
0.541, -1.962e-5
0.540, -1.987e-5
0.539, -2.013e-5
0.538, -2.037e-5
0.537, -2.058e-5
0.536, -2.081e-5
0.535, -2.102e-5
0.534, -2.122e-5
0.533, -2.140e-5
0.532, -2.158e-5
0.531, -2.173e-5
0.530, -2.189e-5
0.529, -2.206e-5
0.528, -2.218e-5
0.527, -2.229e-5
0.526, -2.243e-5
0.525, -2.252e-5
0.524, -2.261e-5
0.523, -2.271e-5
0.522, -2.279e-5
0.521, -2.287e-5
0.520, -2.294e-5
0.519, -2.301e-5
0.518, -2.308e-5
0.517, -2.314e-5
0.516, -2.320e-5
0.515, -2.326e-5
0.514, -2.331e-5
0.513, -2.338e-5
0.512, -2.345e-5
0.511, -2.350e-5
0.510, -2.354e-5
0.509, -2.356e-5
0.508, -2.360e-5
0.507, -2.363e-5
0.506, -2.366e-5
0.505, -2.366e-5
0.504, -2.369e-5
0.503, -2.371e-5
0.502, -2.371e-5
0.501, -2.372e-5
0.500, -2.373e-5
0.499, -2.372e-5
0.498, -2.372e-5
0.497, -2.373e-5
0.496, -2.372e-5
0.495, -2.370e-5
0.494, -2.370e-5
0.493, -2.368e-5
0.492, -2.365e-5
0.491, -2.364e-5
0.490, -2.361e-5
0.489, -2.358e-5
0.488, -2.356e-5
0.487, -2.352e-5
0.486, -2.347e-5
0.485, -2.343e-5
0.484, -2.339e-5
0.483, -2.335e-5
0.482, -2.330e-5
0.481, -2.324e-5
0.480, -2.318e-5
0.479, -2.312e-5
0.478, -2.307e-5
0.477, -2.299e-5
0.476, -2.291e-5
0.475, -2.286e-5
0.474, -2.278e-5
0.473, -2.270e-5
0.472, -2.263e-5
0.471, -2.254e-5
0.470, -2.246e-5
0.469, -2.238e-5
0.468, -2.230e-5
0.467, -2.221e-5
0.466, -2.213e-5
0.465, -2.206e-5
0.464, -2.199e-5
0.463, -2.191e-5
0.462, -2.185e-5
0.461, -2.178e-5
0.460, -2.169e-5
0.459, -2.163e-5
0.458, -2.154e-5
0.457, -2.146e-5
0.456, -2.137e-5
0.455, -2.127e-5
0.454, -2.118e-5
0.453, -2.107e-5
0.452, -2.096e-5
0.451, -2.085e-5
0.450, -2.073e-5
0.449, -2.060e-5
0.448, -2.047e-5
0.447, -2.034e-5
0.446, -2.022e-5
0.445, -2.008e-5
0.444, -1.994e-5
0.443, -1.981e-5
0.442, -1.967e-5
0.441, -1.953e-5
0.440, -1.940e-5
0.439, -1.926e-5
0.438, -1.912e-5
0.437, -1.898e-5
0.436, -1.884e-5
0.435, -1.870e-5
0.434, -1.856e-5
0.433, -1.843e-5
0.432, -1.829e-5
0.431, -1.815e-5
0.430, -1.802e-5
0.429, -1.788e-5
0.428, -1.775e-5
0.427, -1.762e-5
0.426, -1.748e-5
0.425, -1.735e-5
0.424, -1.723e-5
0.423, -1.710e-5
0.422, -1.697e-5
0.421, -1.685e-5
0.420, -1.673e-5
0.419, -1.661e-5
0.418, -1.650e-5
0.417, -1.638e-5
0.416, -1.627e-5
0.415, -1.616e-5
0.414, -1.605e-5
0.413, -1.594e-5
0.412, -1.584e-5
0.411, -1.574e-5
0.410, -1.561e-5
0.409, -1.548e-5
0.408, -1.540e-5
0.407, -1.530e-5
0.406, -1.520e-5
0.405, -1.511e-5
0.404, -1.501e-5
0.403, -1.492e-5
0.402, -1.483e-5
0.401, -1.474e-5
0.400, -1.465e-5
0.399, -1.456e-5
0.398, -1.448e-5
0.397, -1.439e-5
0.396, -1.431e-5
0.395, -1.423e-5
0.394, -1.415e-5
0.393, -1.408e-5
0.392, -1.400e-5
0.391, -1.392e-5
0.390, -1.385e-5
0.389, -1.378e-5
0.388, -1.370e-5
0.387, -1.363e-5
0.386, -1.356e-5
0.385, -1.349e-5
0.384, -1.342e-5
0.383, -1.335e-5
0.382, -1.329e-5
0.381, -1.322e-5
0.380, -1.315e-5
0.379, -1.309e-5
0.378, -1.303e-5
0.377, -1.297e-5
0.376, -1.291e-5
0.375, -1.285e-5
0.374, -1.279e-5
0.373, -1.274e-5
0.372, -1.269e-5
0.371, -1.263e-5
0.370, -1.258e-5
0.369, -1.253e-5
0.368, -1.247e-5
0.367, -1.242e-5
0.366, -1.237e-5
0.365, -1.232e-5
0.364, -1.227e-5
0.363, -1.223e-5
0.362, -1.218e-5
0.361, -1.213e-5
0.360, -1.209e-5
0.359, -1.204e-5
0.358, -1.200e-5
0.357, -1.196e-5
0.356, -1.191e-5
0.355, -1.187e-5
0.354, -1.183e-5
0.353, -1.179e-5
0.352, -1.175e-5
0.351, -1.171e-5
0.350, -1.167e-5
0.349, -1.164e-5
0.348, -1.160e-5
0.347, -1.156e-5
0.346, -1.153e-5
0.345, -1.149e-5
0.344, -1.146e-5
0.343, -1.143e-5
0.342, -1.139e-5
0.341, -1.136e-5
0.340, -1.133e-5
0.339, -1.129e-5
0.338, -1.126e-5
0.337, -1.123e-5
0.336, -1.120e-5
0.335, -1.117e-5
0.334, -1.114e-5
0.333, -1.111e-5
0.332, -1.109e-5
0.331, -1.106e-5
0.330, -1.104e-5
0.329, -1.101e-5
0.328, -1.099e-5
0.327, -1.096e-5
0.326, -1.093e-5
0.325, -1.092e-5
0.324, -1.089e-5
0.323, -1.087e-5
0.322, -1.084e-5
0.321, -1.083e-5
0.320, -1.080e-5
0.319, -1.078e-5
0.318, -1.076e-5
0.317, -1.074e-5
0.316, -1.071e-5
0.315, -1.070e-5
0.314, -1.068e-5
0.313, -1.066e-5
0.312, -1.064e-5
0.311, -1.062e-5
0.310, -1.060e-5
0.309, -1.059e-5
0.308, -1.057e-5
0.307, -1.056e-5
0.306, -1.055e-5
0.305, -1.053e-5
0.304, -1.052e-5
0.303, -1.050e-5
0.302, -1.049e-5
0.301, -1.048e-5
