Feb. 1, 2024   13:17:34
Cyclic Voltammetry
File: c:\users\lab\d3talesrobotics\roboticsui\robotics_api\workflows\actions\examples\cv.bin
Data Source:  Experiment
Instrument Model:  CHI650E
Header:  CV
Note: 

Init E (V) = 0
High E (V) = 0.8
Low E (V) = 0
Final E (V) = 0
Init P/N = P
Scan Rate (V/s) = 0.01
Segment = 2
Sample Interval (V) = 0.001
Quiet Time (sec) = 2
Sensitivity (A/V) = 1e-5

Segment 1:

Segment 2:

Potential/V, Current/A

0, 4.36E-12
0.001, 7.79E-12
0.002, 8.88E-12
0.003, 4.59E-12
0.004, 1.64E-12
0.005, 8.80E-12
0.006, 9.27E-12
0.007, -8.10E-12
0.008, 1.33E-11
0.009, 3.18E-11
0.01, 9.11E-12
0.011, -1.71E-11
0.012, 6.46E-12
0.013, 8.49E-12
0.014, 8.18E-12
0.015, 6.93E-12
0.016, 5.37E-12
0.017, 3.50E-12
0.018, 3.66E-12
0.019, 2.34E-12
0.02, 2.18E-12
0.021, 4.59E-12
0.022, 4.67E-12
0.023, 4.91E-12
0.024, 5.68E-12
0.025, 4.98E-12
0.026, 5.45E-12
0.027, 5.61E-12
0.028, 5.76E-12
0.029, 6.54E-12
0.03, 8.56E-12
0.031, 6.77E-12
0.032, 6.46E-12
0.033, 7.40E-12
0.034, 7.55E-12
0.035, 7.47E-12
0.036, 8.49E-12
0.037, 7.55E-12
0.038, 7.01E-12
0.039, 8.41E-12
0.04, 7.71E-12
0.041, 8.10E-12
0.042, 8.02E-12
0.043, 9.19E-12
0.044, 9.81E-12
0.045, 8.72E-12
0.046, 9.50E-12
0.047, 9.42E-12
0.048, 9.42E-12
0.049, 8.95E-12
0.05, 1.03E-11
0.051, 1.06E-11
0.052, 1.11E-11
0.053, 1.03E-11
0.054, 1.11E-11
0.055, 1.11E-11
0.056, 1.15E-11
0.057, 1.09E-11
0.058, 1.22E-11
0.059, 1.20E-11
0.06, 1.20E-11
0.061, 1.22E-11
0.062, 1.45E-11
0.063, 1.44E-11
0.064, 1.34E-11
0.065, 1.28E-11
0.066, 1.56E-11
0.067, 1.60E-11
0.068, 1.43E-11
0.069, 1.60E-11
0.07, 1.67E-11
0.071, 1.78E-11
0.072, 1.50E-11
0.073, 1.81E-11
0.074, 1.97E-11
0.075, 2.06E-11
0.076, 1.78E-11
0.077, 1.98E-11
0.078, 2.09E-11
0.079, 2.14E-11
0.08, 2.06E-11
0.081, 2.17E-11
0.082, 2.29E-11
0.083, 2.17E-11
0.084, 2.36E-11
0.085, 2.56E-11
0.086, 2.60E-11
0.087, 2.42E-11
0.088, 2.66E-11
0.089, 2.72E-11
0.09, 2.82E-11
0.091, 2.76E-11
0.092, 3.04E-11
0.093, 3.20E-11
0.094, 3.25E-11
0.095, 3.15E-11
0.096, 3.35E-11
0.097, 3.48E-11
0.098, 3.64E-11
0.099, 3.61E-11
0.1, 3.57E-11
0.101, 3.95E-11
0.102, 4.06E-11
0.103, 4.19E-11
0.104, 4.07E-11
0.105, 4.39E-11
0.106, 4.59E-11
0.107, 4.74E-11
0.108, 4.68E-11
0.109, 5.01E-11
0.11, 5.29E-11
0.111, 5.40E-11
0.112, 5.58E-11
0.113, 5.72E-11
0.114, 5.93E-11
0.115, 6.09E-11
0.116, 6.49E-11
0.117, 7.02E-11
0.118, 6.76E-11
0.119, 7.10E-11
0.12, 7.62E-11
0.121, 7.61E-11
0.122, 6.16E-11
0.123, 5.66E-11
0.124, 6.49E-11
0.125, 7.61E-11
0.126, 9.34E-11
0.127, 9.44E-11
0.128, 9.46E-11
0.129, 1.01E-10
0.13, 1.01E-10
0.131, 9.97E-11
0.132, 1.12E-10
0.133, 1.20E-10
0.134, 1.25E-10
0.135, 1.27E-10
0.136, 1.29E-10
0.137, 1.27E-10
0.138, 1.30E-10
0.139, 1.42E-10
0.14, 1.49E-10
0.141, 1.58E-10
0.142, 1.67E-10
0.143, 1.75E-10
0.144, 1.82E-10
0.145, 1.86E-10
0.146, 1.94E-10
0.147, 1.99E-10
0.148, 2.03E-10
0.149, 2.10E-10
0.15, 2.15E-10
0.151, 2.26E-10
0.152, 2.37E-10
0.153, 2.45E-10
0.154, 2.55E-10
0.155, 2.64E-10
0.156, 2.73E-10
0.157, 2.83E-10
0.158, 2.93E-10
0.159, 3.03E-10
0.16, 3.15E-10
0.161, 3.25E-10
0.162, 3.39E-10
0.163, 3.53E-10
0.164, 3.68E-10
0.165, 3.82E-10
0.166, 3.84E-10
0.167, 3.92E-10
0.168, 4.13E-10
0.169, 4.33E-10
0.17, 4.50E-10
0.171, 4.68E-10
0.172, 4.89E-10
0.173, 5.13E-10
0.174, 5.31E-10
0.175, 5.39E-10
0.176, 5.62E-10
0.177, 5.90E-10
0.178, 6.13E-10
0.179, 6.41E-10
0.18, 6.69E-10
0.181, 6.94E-10
0.182, 7.22E-10
0.183, 7.53E-10
0.184, 7.80E-10
0.185, 8.07E-10
0.186, 8.34E-10
0.187, 8.65E-10
0.188, 9.00E-10
0.189, 9.36E-10
0.19, 9.74E-10
0.191, 1.01E-09
0.192, 1.05E-09
0.193, 1.09E-09
0.194, 1.14E-09
0.195, 1.18E-09
0.196, 1.23E-09
0.197, 1.28E-09
0.198, 1.32E-09
0.199, 1.38E-09
0.2, 1.43E-09
0.201, 1.49E-09
0.202, 1.55E-09
0.203, 1.61E-09
0.204, 1.67E-09
0.205, 1.73E-09
0.206, 1.80E-09
0.207, 1.87E-09
0.208, 1.94E-09
0.209, 2.02E-09
0.21, 2.09E-09
0.211, 2.17E-09
0.212, 2.26E-09
0.213, 2.35E-09
0.214, 2.44E-09
0.215, 2.53E-09
0.216, 2.63E-09
0.217, 2.73E-09
0.218, 2.84E-09
0.219, 2.95E-09
0.22, 3.06E-09
0.221, 3.18E-09
0.222, 3.30E-09
0.223, 3.43E-09
0.224, 3.56E-09
0.225, 3.69E-09
0.226, 3.83E-09
0.227, 3.98E-09
0.228, 4.14E-09
0.229, 4.29E-09
0.23, 4.46E-09
0.231, 4.62E-09
0.232, 4.80E-09
0.233, 4.98E-09
0.234, 5.17E-09
0.235, 5.36E-09
0.236, 5.56E-09
0.237, 5.77E-09
0.238, 5.98E-09
0.239, 6.21E-09
0.24, 6.45E-09
0.241, 6.68E-09
0.242, 6.93E-09
0.243, 7.19E-09
0.244, 7.45E-09
0.245, 7.72E-09
0.246, 8.01E-09
0.247, 8.30E-09
0.248, 8.60E-09
0.249, 8.91E-09
0.25, 9.23E-09
0.251, 9.57E-09
0.252, 9.91E-09
0.253, 1.03E-08
0.254, 1.06E-08
0.255, 1.10E-08
0.256, 1.14E-08
0.257, 1.18E-08
0.258, 1.22E-08
0.259, 1.27E-08
0.26, 1.31E-08
0.261, 1.36E-08
0.262, 1.40E-08
0.263, 1.45E-08
0.264, 1.50E-08
0.265, 1.55E-08
0.266, 1.60E-08
0.267, 1.66E-08
0.268, 1.71E-08
0.269, 1.77E-08
0.27, 1.82E-08
0.271, 1.88E-08
0.272, 1.95E-08
0.273, 2.01E-08
0.274, 2.07E-08
0.275, 2.14E-08
0.276, 2.21E-08
0.277, 2.27E-08
0.278, 2.34E-08
0.279, 2.42E-08
0.28, 2.49E-08
0.281, 2.56E-08
0.282, 2.64E-08
0.283, 2.72E-08
0.284, 2.80E-08
0.285, 2.88E-08
0.286, 2.96E-08
0.287, 3.04E-08
0.288, 3.13E-08
0.289, 3.21E-08
0.29, 3.30E-08
0.291, 3.39E-08
0.292, 3.48E-08
0.293, 3.58E-08
0.294, 3.67E-08
0.295, 3.76E-08
0.296, 3.86E-08
0.297, 3.96E-08
0.298, 4.05E-08
0.299, 4.15E-08
0.3, 4.25E-08
0.301, 4.35E-08
0.302, 4.46E-08
0.303, 4.56E-08
0.304, 4.66E-08
0.305, 4.76E-08
0.306, 4.87E-08
0.307, 4.97E-08
0.308, 5.08E-08
0.309, 5.19E-08
0.31, 5.29E-08
0.311, 5.40E-08
0.312, 5.50E-08
0.313, 5.61E-08
0.314, 5.71E-08
0.315, 5.82E-08
0.316, 5.92E-08
0.317, 6.03E-08
0.318, 6.13E-08
0.319, 6.24E-08
0.32, 6.34E-08
0.321, 6.45E-08
0.322, 6.55E-08
0.323, 6.65E-08
0.324, 6.75E-08
0.325, 6.85E-08
0.326, 6.95E-08
0.327, 7.05E-08
0.328, 7.15E-08
0.329, 7.24E-08
0.33, 7.34E-08
0.331, 7.43E-08
0.332, 7.53E-08
0.333, 7.62E-08
0.334, 7.70E-08
0.335, 7.79E-08
0.336, 7.88E-08
0.337, 7.97E-08
0.338, 8.05E-08
0.339, 8.14E-08
0.34, 8.22E-08
0.341, 8.30E-08
0.342, 8.38E-08
0.343, 8.46E-08
0.344, 8.53E-08
0.345, 8.61E-08
0.346, 8.68E-08
0.347, 8.75E-08
0.348, 8.82E-08
0.349, 8.89E-08
0.35, 8.96E-08
0.351, 9.02E-08
0.352, 9.09E-08
0.353, 9.15E-08
0.354, 9.21E-08
0.355, 9.27E-08
0.356, 9.33E-08
0.357, 9.39E-08
0.358, 9.44E-08
0.359, 9.50E-08
0.36, 9.55E-08
0.361, 9.60E-08
0.362, 9.65E-08
0.363, 9.70E-08
0.364, 9.75E-08
0.365, 9.79E-08
0.366, 9.84E-08
0.367, 9.88E-08
0.368, 9.92E-08
0.369, 9.96E-08
0.37, 1.00E-07
0.371, 1.00E-07
0.372, 1.01E-07
0.373, 1.01E-07
0.374, 1.02E-07
0.375, 1.02E-07
0.376, 1.02E-07
0.377, 1.03E-07
0.378, 1.03E-07
0.379, 1.03E-07
0.38, 1.03E-07
0.381, 1.04E-07
0.382, 1.04E-07
0.383, 1.04E-07
0.384, 1.05E-07
0.385, 1.05E-07
0.386, 1.05E-07
0.387, 1.05E-07
0.388, 1.06E-07
0.389, 1.06E-07
0.39, 1.06E-07
0.391, 1.06E-07
0.392, 1.06E-07
0.393, 1.07E-07
0.394, 1.07E-07
0.395, 1.07E-07
0.396, 1.07E-07
0.397, 1.07E-07
0.398, 1.07E-07
0.399, 1.08E-07
0.4, 1.08E-07
0.401, 1.08E-07
0.402, 1.08E-07
0.403, 1.08E-07
0.404, 1.08E-07
0.405, 1.08E-07
0.406, 1.09E-07
0.407, 1.09E-07
0.408, 1.09E-07
0.409, 1.09E-07
0.41, 1.09E-07
0.411, 1.09E-07
0.412, 1.09E-07
0.413, 1.09E-07
0.414, 1.10E-07
0.415, 1.10E-07
0.416, 1.10E-07
0.417, 1.10E-07
0.418, 1.10E-07
0.419, 1.10E-07
0.42, 1.10E-07
0.421, 1.10E-07
0.422, 1.10E-07
0.423, 1.10E-07
0.424, 1.10E-07
0.425, 1.11E-07
0.426, 1.11E-07
0.427, 1.11E-07
0.428, 1.11E-07
0.429, 1.11E-07
0.43, 1.11E-07
0.431, 1.11E-07
0.432, 1.11E-07
0.433, 1.11E-07
0.434, 1.11E-07
0.435, 1.11E-07
0.436, 1.11E-07
0.437, 1.11E-07
0.438, 1.11E-07
0.439, 1.11E-07
0.44, 1.11E-07
0.441, 1.11E-07
0.442, 1.12E-07
0.443, 1.12E-07
0.444, 1.12E-07
0.445, 1.12E-07
0.446, 1.12E-07
0.447, 1.12E-07
0.448, 1.12E-07
0.449, 1.12E-07
0.45, 1.12E-07
0.451, 1.12E-07
0.452, 1.12E-07
0.453, 1.12E-07
0.454, 1.12E-07
0.455, 1.12E-07
0.456, 1.12E-07
0.457, 1.12E-07
0.458, 1.12E-07
0.459, 1.12E-07
0.46, 1.12E-07
0.461, 1.12E-07
0.462, 1.12E-07
0.463, 1.12E-07
0.464, 1.12E-07
0.465, 1.12E-07
0.466, 1.12E-07
0.467, 1.12E-07
0.468, 1.12E-07
0.469, 1.12E-07
0.47, 1.13E-07
0.471, 1.13E-07
0.472, 1.13E-07
0.473, 1.13E-07
0.474, 1.13E-07
0.475, 1.13E-07
0.476, 1.13E-07
0.477, 1.13E-07
0.478, 1.13E-07
0.479, 1.13E-07
0.48, 1.13E-07
0.481, 1.13E-07
0.482, 1.13E-07
0.483, 1.13E-07
0.484, 1.13E-07
0.485, 1.13E-07
0.486, 1.13E-07
0.487, 1.13E-07
0.488, 1.13E-07
0.489, 1.13E-07
0.49, 1.13E-07
0.491, 1.13E-07
0.492, 1.13E-07
0.493, 1.13E-07
0.494, 1.13E-07
0.495, 1.13E-07
0.496, 1.13E-07
0.497, 1.13E-07
0.498, 1.13E-07
0.499, 1.13E-07
0.5, 1.13E-07
0.501, 1.13E-07
0.502, 1.13E-07
0.503, 1.13E-07
0.504, 1.13E-07
0.505, 1.13E-07
0.506, 1.13E-07
0.507, 1.13E-07
0.508, 1.13E-07
0.509, 1.13E-07
0.51, 1.13E-07
0.511, 1.13E-07
0.512, 1.13E-07
0.513, 1.13E-07
0.514, 1.13E-07
0.515, 1.13E-07
0.516, 1.13E-07
0.517, 1.13E-07
0.518, 1.13E-07
0.519, 1.13E-07
0.52, 1.14E-07
0.521, 1.14E-07
0.522, 1.14E-07
0.523, 1.14E-07
0.524, 1.14E-07
0.525, 1.14E-07
0.526, 1.14E-07
0.527, 1.14E-07
0.528, 1.14E-07
0.529, 1.14E-07
0.53, 1.14E-07
0.531, 1.14E-07
0.532, 1.14E-07
0.533, 1.14E-07
0.534, 1.14E-07
0.535, 1.14E-07
0.536, 1.14E-07
0.537, 1.14E-07
0.538, 1.14E-07
0.539, 1.14E-07
0.54, 1.14E-07
0.541, 1.14E-07
0.542, 1.14E-07
0.543, 1.14E-07
0.544, 1.14E-07
0.545, 1.14E-07
0.546, 1.14E-07
0.547, 1.14E-07
0.548, 1.14E-07
0.549, 1.14E-07
0.55, 1.14E-07
0.551, 1.14E-07
0.552, 1.14E-07
0.553, 1.14E-07
0.554, 1.14E-07
0.555, 1.14E-07
0.556, 1.14E-07
0.557, 1.14E-07
0.558, 1.14E-07
0.559, 1.14E-07
0.56, 1.14E-07
0.561, 1.14E-07
0.562, 1.14E-07
0.563, 1.14E-07
0.564, 1.14E-07
0.565, 1.14E-07
0.566, 1.14E-07
0.567, 1.14E-07
0.568, 1.14E-07
0.569, 1.14E-07
0.57, 1.14E-07
0.571, 1.14E-07
0.572, 1.14E-07
0.573, 1.14E-07
0.574, 1.14E-07
0.575, 1.14E-07
0.576, 1.14E-07
0.577, 1.14E-07
0.578, 1.14E-07
0.579, 1.14E-07
0.58, 1.14E-07
0.581, 1.14E-07
0.582, 1.14E-07
0.583, 1.14E-07
0.584, 1.14E-07
0.585, 1.14E-07
0.586, 1.14E-07
0.587, 1.14E-07
0.588, 1.14E-07
0.589, 1.14E-07
0.59, 1.14E-07
0.591, 1.14E-07
0.592, 1.14E-07
0.593, 1.14E-07
0.594, 1.14E-07
0.595, 1.14E-07
0.596, 1.14E-07
0.597, 1.14E-07
0.598, 1.14E-07
0.599, 1.14E-07
0.6, 1.14E-07
0.601, 1.14E-07
0.602, 1.14E-07
0.603, 1.14E-07
0.604, 1.14E-07
0.605, 1.14E-07
0.606, 1.14E-07
0.607, 1.14E-07
0.608, 1.14E-07
0.609, 1.14E-07
0.61, 1.14E-07
0.611, 1.14E-07
0.612, 1.14E-07
0.613, 1.14E-07
0.614, 1.14E-07
0.615, 1.15E-07
0.616, 1.15E-07
0.617, 1.15E-07
0.618, 1.15E-07
0.619, 1.15E-07
0.62, 1.15E-07
0.621, 1.15E-07
0.622, 1.15E-07
0.623, 1.15E-07
0.624, 1.15E-07
0.625, 1.15E-07
0.626, 1.15E-07
0.627, 1.15E-07
0.628, 1.15E-07
0.629, 1.15E-07
0.63, 1.15E-07
0.631, 1.15E-07
0.632, 1.15E-07
0.633, 1.15E-07
0.634, 1.15E-07
0.635, 1.15E-07
0.636, 1.15E-07
0.637, 1.15E-07
0.638, 1.15E-07
0.639, 1.15E-07
0.64, 1.15E-07
0.641, 1.15E-07
0.642, 1.15E-07
0.643, 1.15E-07
0.644, 1.15E-07
0.645, 1.15E-07
0.646, 1.15E-07
0.647, 1.15E-07
0.648, 1.15E-07
0.649, 1.15E-07
0.65, 1.15E-07
0.651, 1.15E-07
0.652, 1.15E-07
0.653, 1.15E-07
0.654, 1.15E-07
0.655, 1.15E-07
0.656, 1.15E-07
0.657, 1.15E-07
0.658, 1.15E-07
0.659, 1.15E-07
0.66, 1.15E-07
0.661, 1.15E-07
0.662, 1.15E-07
0.663, 1.15E-07
0.664, 1.15E-07
0.665, 1.15E-07
0.666, 1.15E-07
0.667, 1.15E-07
0.668, 1.15E-07
0.669, 1.15E-07
0.67, 1.15E-07
0.671, 1.15E-07
0.672, 1.15E-07
0.673, 1.15E-07
0.674, 1.15E-07
0.675, 1.15E-07
0.676, 1.15E-07
0.677, 1.15E-07
0.678, 1.15E-07
0.679, 1.15E-07
0.68, 1.15E-07
0.681, 1.15E-07
0.682, 1.15E-07
0.683, 1.15E-07
0.684, 1.15E-07
0.685, 1.15E-07
0.686, 1.15E-07
0.687, 1.15E-07
0.688, 1.15E-07
0.689, 1.15E-07
0.69, 1.15E-07
0.691, 1.15E-07
0.692, 1.15E-07
0.693, 1.15E-07
0.694, 1.15E-07
0.695, 1.15E-07
0.696, 1.15E-07
0.697, 1.15E-07
0.698, 1.15E-07
0.699, 1.15E-07
0.7, 1.15E-07
0.701, 1.15E-07
0.702, 1.15E-07
0.703, 1.15E-07
0.704, 1.15E-07
0.705, 1.15E-07
0.706, 1.15E-07
0.707, 1.15E-07
0.708, 1.15E-07
0.709, 1.15E-07
0.71, 1.15E-07
0.711, 1.15E-07
0.712, 1.15E-07
0.713, 1.15E-07
0.714, 1.15E-07
0.715, 1.15E-07
0.716, 1.15E-07
0.717, 1.15E-07
0.718, 1.15E-07
0.719, 1.15E-07
0.72, 1.15E-07
0.721, 1.15E-07
0.722, 1.15E-07
0.723, 1.15E-07
0.724, 1.15E-07
0.725, 1.15E-07
0.726, 1.15E-07
0.727, 1.15E-07
0.728, 1.15E-07
0.729, 1.15E-07
0.73, 1.15E-07
0.731, 1.15E-07
0.732, 1.15E-07
0.733, 1.15E-07
0.734, 1.15E-07
0.735, 1.15E-07
0.736, 1.15E-07
0.737, 1.15E-07
0.738, 1.15E-07
0.739, 1.15E-07
0.74, 1.15E-07
0.741, 1.15E-07
0.742, 1.15E-07
0.743, 1.15E-07
0.744, 1.15E-07
0.745, 1.15E-07
0.746, 1.15E-07
0.747, 1.15E-07
0.748, 1.15E-07
0.749, 1.15E-07
0.75, 1.15E-07
0.751, 1.15E-07
0.752, 1.15E-07
0.753, 1.15E-07
0.754, 1.15E-07
0.755, 1.15E-07
0.756, 1.15E-07
0.757, 1.15E-07
0.758, 1.15E-07
0.759, 1.15E-07
0.76, 1.15E-07
0.761, 1.15E-07
0.762, 1.15E-07
0.763, 1.15E-07
0.764, 1.15E-07
0.765, 1.15E-07
0.766, 1.15E-07
0.767, 1.15E-07
0.768, 1.15E-07
0.769, 1.15E-07
0.77, 1.15E-07
0.771, 1.15E-07
0.772, 1.15E-07
0.773, 1.15E-07
0.774, 1.15E-07
0.775, 1.15E-07
0.776, 1.15E-07
0.777, 1.15E-07
0.778, 1.15E-07
0.779, 1.15E-07
0.78, 1.15E-07
0.781, 1.15E-07
0.782, 1.15E-07
0.783, 1.15E-07
0.784, 1.15E-07
0.785, 1.15E-07
0.786, 1.15E-07
0.787, 1.15E-07
0.788, 1.15E-07
0.789, 1.15E-07
0.79, 1.15E-07
0.791, 1.15E-07
0.792, 1.15E-07
0.793, 1.15E-07
0.794, 1.15E-07
0.795, 1.15E-07
0.796, 1.15E-07
0.797, 1.15E-07
0.798, 1.15E-07
0.799, 1.15E-07
0.8, 1.15E-07
0.799, 1.15E-07
0.798, 1.15E-07
0.797, 1.15E-07
0.796, 1.15E-07
0.795, 1.15E-07
0.794, 1.15E-07
0.793, 1.15E-07
0.792, 1.15E-07
0.791, 1.15E-07
0.79, 1.15E-07
0.789, 1.15E-07
0.788, 1.15E-07
0.787, 1.15E-07
0.786, 1.15E-07
0.785, 1.15E-07
0.784, 1.15E-07
0.783, 1.15E-07
0.782, 1.15E-07
0.781, 1.15E-07
0.78, 1.15E-07
0.779, 1.15E-07
0.778, 1.15E-07
0.777, 1.15E-07
0.776, 1.15E-07
0.775, 1.15E-07
0.774, 1.15E-07
0.773, 1.15E-07
0.772, 1.15E-07
0.771, 1.15E-07
0.77, 1.15E-07
0.769, 1.15E-07
0.768, 1.15E-07
0.767, 1.15E-07
0.766, 1.15E-07
0.765, 1.15E-07
0.764, 1.15E-07
0.763, 1.15E-07
0.762, 1.15E-07
0.761, 1.15E-07
0.76, 1.15E-07
0.759, 1.15E-07
0.758, 1.15E-07
0.757, 1.15E-07
0.756, 1.15E-07
0.755, 1.15E-07
0.754, 1.15E-07
0.753, 1.15E-07
0.752, 1.15E-07
0.751, 1.15E-07
0.75, 1.15E-07
0.749, 1.15E-07
0.748, 1.15E-07
0.747, 1.15E-07
0.746, 1.15E-07
0.745, 1.15E-07
0.744, 1.15E-07
0.743, 1.15E-07
0.742, 1.15E-07
0.741, 1.15E-07
0.74, 1.15E-07
0.739, 1.15E-07
0.738, 1.15E-07
0.737, 1.15E-07
0.736, 1.15E-07
0.735, 1.15E-07
0.734, 1.15E-07
0.733, 1.15E-07
0.732, 1.15E-07
0.731, 1.15E-07
0.73, 1.15E-07
0.729, 1.15E-07
0.728, 1.15E-07
0.727, 1.15E-07
0.726, 1.15E-07
0.725, 1.15E-07
0.724, 1.15E-07
0.723, 1.15E-07
0.722, 1.15E-07
0.721, 1.15E-07
0.72, 1.15E-07
0.719, 1.16E-07
0.718, 1.15E-07
0.717, 1.15E-07
0.716, 1.15E-07
0.715, 1.15E-07
0.714, 1.15E-07
0.713, 1.15E-07
0.712, 1.15E-07
0.711, 1.15E-07
0.71, 1.15E-07
0.709, 1.15E-07
0.708, 1.15E-07
0.707, 1.15E-07
0.706, 1.15E-07
0.705, 1.15E-07
0.704, 1.15E-07
0.703, 1.15E-07
0.702, 1.15E-07
0.701, 1.15E-07
0.7, 1.15E-07
0.699, 1.15E-07
0.698, 1.15E-07
0.697, 1.15E-07
0.696, 1.15E-07
0.695, 1.15E-07
0.694, 1.15E-07
0.693, 1.15E-07
0.692, 1.15E-07
0.691, 1.15E-07
0.69, 1.15E-07
0.689, 1.15E-07
0.688, 1.15E-07
0.687, 1.15E-07
0.686, 1.15E-07
0.685, 1.15E-07
0.684, 1.15E-07
0.683, 1.15E-07
0.682, 1.15E-07
0.681, 1.15E-07
0.68, 1.15E-07
0.679, 1.15E-07
0.678, 1.15E-07
0.677, 1.15E-07
0.676, 1.15E-07
0.675, 1.15E-07
0.674, 1.15E-07
0.673, 1.15E-07
0.672, 1.15E-07
0.671, 1.15E-07
0.67, 1.15E-07
0.669, 1.15E-07
0.668, 1.15E-07
0.667, 1.15E-07
0.666, 1.15E-07
0.665, 1.15E-07
0.664, 1.15E-07
0.663, 1.15E-07
0.662, 1.15E-07
0.661, 1.15E-07
0.66, 1.15E-07
0.659, 1.15E-07
0.658, 1.15E-07
0.657, 1.15E-07
0.656, 1.15E-07
0.655, 1.15E-07
0.654, 1.15E-07
0.653, 1.15E-07
0.652, 1.15E-07
0.651, 1.15E-07
0.65, 1.15E-07
0.649, 1.15E-07
0.648, 1.15E-07
0.647, 1.15E-07
0.646, 1.15E-07
0.645, 1.15E-07
0.644, 1.15E-07
0.643, 1.15E-07
0.642, 1.15E-07
0.641, 1.15E-07
0.64, 1.15E-07
0.639, 1.15E-07
0.638, 1.15E-07
0.637, 1.15E-07
0.636, 1.15E-07
0.635, 1.15E-07
0.634, 1.15E-07
0.633, 1.14E-07
0.632, 1.14E-07
0.631, 1.15E-07
0.63, 1.14E-07
0.629, 1.14E-07
0.628, 1.14E-07
0.627, 1.14E-07
0.626, 1.14E-07
0.625, 1.14E-07
0.624, 1.14E-07
0.623, 1.14E-07
0.622, 1.14E-07
0.621, 1.14E-07
0.62, 1.14E-07
0.619, 1.14E-07
0.618, 1.14E-07
0.617, 1.14E-07
0.616, 1.14E-07
0.615, 1.14E-07
0.614, 1.14E-07
0.613, 1.14E-07
0.612, 1.14E-07
0.611, 1.14E-07
0.61, 1.14E-07
0.609, 1.14E-07
0.608, 1.14E-07
0.607, 1.14E-07
0.606, 1.14E-07
0.605, 1.14E-07
0.604, 1.14E-07
0.603, 1.14E-07
0.602, 1.14E-07
0.601, 1.14E-07
0.6, 1.14E-07
0.599, 1.14E-07
0.598, 1.14E-07
0.597, 1.14E-07
0.596, 1.14E-07
0.595, 1.14E-07
0.594, 1.14E-07
0.593, 1.14E-07
0.592, 1.14E-07
0.591, 1.14E-07
0.59, 1.14E-07
0.589, 1.14E-07
0.588, 1.14E-07
0.587, 1.14E-07
0.586, 1.14E-07
0.585, 1.14E-07
0.584, 1.14E-07
0.583, 1.14E-07
0.582, 1.14E-07
0.581, 1.14E-07
0.58, 1.14E-07
0.579, 1.14E-07
0.578, 1.14E-07
0.577, 1.14E-07
0.576, 1.14E-07
0.575, 1.14E-07
0.574, 1.14E-07
0.573, 1.14E-07
0.572, 1.14E-07
0.571, 1.14E-07
0.57, 1.14E-07
0.569, 1.14E-07
0.568, 1.14E-07
0.567, 1.14E-07
0.566, 1.14E-07
0.565, 1.14E-07
0.564, 1.14E-07
0.563, 1.14E-07
0.562, 1.14E-07
0.561, 1.14E-07
0.56, 1.14E-07
0.559, 1.14E-07
0.558, 1.14E-07
0.557, 1.14E-07
0.556, 1.14E-07
0.555, 1.14E-07
0.554, 1.14E-07
0.553, 1.14E-07
0.552, 1.14E-07
0.551, 1.14E-07
0.55, 1.14E-07
0.549, 1.14E-07
0.548, 1.14E-07
0.547, 1.14E-07
0.546, 1.14E-07
0.545, 1.14E-07
0.544, 1.14E-07
0.543, 1.14E-07
0.542, 1.14E-07
0.541, 1.14E-07
0.54, 1.14E-07
0.539, 1.14E-07
0.538, 1.13E-07
0.537, 1.13E-07
0.536, 1.13E-07
0.535, 1.13E-07
0.534, 1.13E-07
0.533, 1.13E-07
0.532, 1.13E-07
0.531, 1.13E-07
0.53, 1.13E-07
0.529, 1.13E-07
0.528, 1.13E-07
0.527, 1.13E-07
0.526, 1.13E-07
0.525, 1.13E-07
0.524, 1.13E-07
0.523, 1.13E-07
0.522, 1.13E-07
0.521, 1.13E-07
0.52, 1.13E-07
0.519, 1.13E-07
0.518, 1.13E-07
0.517, 1.13E-07
0.516, 1.13E-07
0.515, 1.13E-07
0.514, 1.13E-07
0.513, 1.13E-07
0.512, 1.13E-07
0.511, 1.13E-07
0.51, 1.13E-07
0.509, 1.13E-07
0.508, 1.13E-07
0.507, 1.13E-07
0.506, 1.13E-07
0.505, 1.13E-07
0.504, 1.13E-07
0.503, 1.13E-07
0.502, 1.13E-07
0.501, 1.13E-07
0.5, 1.13E-07
0.499, 1.13E-07
0.498, 1.13E-07
0.497, 1.13E-07
0.496, 1.13E-07
0.495, 1.13E-07
0.494, 1.13E-07
0.493, 1.13E-07
0.492, 1.13E-07
0.491, 1.13E-07
0.49, 1.12E-07
0.489, 1.12E-07
0.488, 1.12E-07
0.487, 1.12E-07
0.486, 1.12E-07
0.485, 1.12E-07
0.484, 1.12E-07
0.483, 1.12E-07
0.482, 1.12E-07
0.481, 1.12E-07
0.48, 1.12E-07
0.479, 1.12E-07
0.478, 1.12E-07
0.477, 1.12E-07
0.476, 1.12E-07
0.475, 1.12E-07
0.474, 1.12E-07
0.473, 1.12E-07
0.472, 1.12E-07
0.471, 1.12E-07
0.47, 1.12E-07
0.469, 1.12E-07
0.468, 1.12E-07
0.467, 1.12E-07
0.466, 1.12E-07
0.465, 1.12E-07
0.464, 1.12E-07
0.463, 1.12E-07
0.462, 1.12E-07
0.461, 1.12E-07
0.46, 1.11E-07
0.459, 1.11E-07
0.458, 1.11E-07
0.457, 1.11E-07
0.456, 1.11E-07
0.455, 1.11E-07
0.454, 1.11E-07
0.453, 1.11E-07
0.452, 1.11E-07
0.451, 1.11E-07
0.45, 1.11E-07
0.449, 1.11E-07
0.448, 1.11E-07
0.447, 1.11E-07
0.446, 1.11E-07
0.445, 1.11E-07
0.444, 1.11E-07
0.443, 1.11E-07
0.442, 1.11E-07
0.441, 1.11E-07
0.44, 1.10E-07
0.439, 1.10E-07
0.438, 1.10E-07
0.437, 1.10E-07
0.436, 1.10E-07
0.435, 1.10E-07
0.434, 1.10E-07
0.433, 1.10E-07
0.432, 1.10E-07
0.431, 1.10E-07
0.43, 1.10E-07
0.429, 1.10E-07
0.428, 1.10E-07
0.427, 1.09E-07
0.426, 1.09E-07
0.425, 1.09E-07
0.424, 1.09E-07
0.423, 1.09E-07
0.422, 1.09E-07
0.421, 1.09E-07
0.42, 1.09E-07
0.419, 1.09E-07
0.418, 1.09E-07
0.417, 1.08E-07
0.416, 1.08E-07
0.415, 1.08E-07
0.414, 1.08E-07
0.413, 1.08E-07
0.412, 1.08E-07
0.411, 1.08E-07
0.41, 1.08E-07
0.409, 1.07E-07
0.408, 1.07E-07
0.407, 1.07E-07
0.406, 1.07E-07
0.405, 1.07E-07
0.404, 1.07E-07
0.403, 1.06E-07
0.402, 1.06E-07
0.401, 1.06E-07
0.4, 1.06E-07
0.399, 1.06E-07
0.398, 1.06E-07
0.397, 1.05E-07
0.396, 1.05E-07
0.395, 1.05E-07
0.394, 1.05E-07
0.393, 1.05E-07
0.392, 1.04E-07
0.391, 1.04E-07
0.39, 1.04E-07
0.389, 1.04E-07
0.388, 1.03E-07
0.387, 1.03E-07
0.386, 1.03E-07
0.385, 1.02E-07
0.384, 1.02E-07
0.383, 1.02E-07
0.382, 1.02E-07
0.381, 1.01E-07
0.38, 1.01E-07
0.379, 1.01E-07
0.378, 1.00E-07
0.377, 9.98E-08
0.376, 9.95E-08
0.375, 9.91E-08
0.374, 9.87E-08
0.373, 9.83E-08
0.372, 9.79E-08
0.371, 9.75E-08
0.37, 9.71E-08
0.369, 9.66E-08
0.368, 9.61E-08
0.367, 9.57E-08
0.366, 9.52E-08
0.365, 9.47E-08
0.364, 9.42E-08
0.363, 9.37E-08
0.362, 9.31E-08
0.361, 9.26E-08
0.36, 9.20E-08
0.359, 9.15E-08
0.358, 9.08E-08
0.357, 9.02E-08
0.356, 8.96E-08
0.355, 8.90E-08
0.354, 8.83E-08
0.353, 8.77E-08
0.352, 8.70E-08
0.351, 8.63E-08
0.35, 8.56E-08
0.349, 8.49E-08
0.348, 8.41E-08
0.347, 8.34E-08
0.346, 8.26E-08
0.345, 8.18E-08
0.344, 8.10E-08
0.343, 8.02E-08
0.342, 7.94E-08
0.341, 7.86E-08
0.34, 7.77E-08
0.339, 7.68E-08
0.338, 7.60E-08
0.337, 7.51E-08
0.336, 7.42E-08
0.335, 7.32E-08
0.334, 7.23E-08
0.333, 7.14E-08
0.332, 7.04E-08
0.331, 6.95E-08
0.33, 6.85E-08
0.329, 6.75E-08
0.328, 6.65E-08
0.327, 6.55E-08
0.326, 6.45E-08
0.325, 6.35E-08
0.324, 6.24E-08
0.323, 6.14E-08
0.322, 6.04E-08
0.321, 5.93E-08
0.32, 5.83E-08
0.319, 5.72E-08
0.318, 5.61E-08
0.317, 5.51E-08
0.316, 5.40E-08
0.315, 5.30E-08
0.314, 5.19E-08
0.313, 5.08E-08
0.312, 4.98E-08
0.311, 4.87E-08
0.31, 4.77E-08
0.309, 4.66E-08
0.308, 4.56E-08
0.307, 4.45E-08
0.306, 4.35E-08
0.305, 4.24E-08
0.304, 4.14E-08
0.303, 4.04E-08
0.302, 3.94E-08
0.301, 3.84E-08
0.3, 3.75E-08
0.299, 3.65E-08
0.298, 3.55E-08
0.297, 3.46E-08
0.296, 3.36E-08
0.295, 3.27E-08
0.294, 3.18E-08
0.293, 3.09E-08
0.292, 3.00E-08
0.291, 2.92E-08
0.29, 2.83E-08
0.289, 2.75E-08
0.288, 2.67E-08
0.287, 2.59E-08
0.286, 2.51E-08
0.285, 2.43E-08
0.284, 2.35E-08
0.283, 2.28E-08
0.282, 2.21E-08
0.281, 2.14E-08
0.28, 2.07E-08
0.279, 2.00E-08
0.278, 1.93E-08
0.277, 1.87E-08
0.276, 1.81E-08
0.275, 1.74E-08
0.274, 1.69E-08
0.273, 1.63E-08
0.272, 1.57E-08
0.271, 1.51E-08
0.27, 1.46E-08
0.269, 1.40E-08
0.268, 1.35E-08
0.267, 1.30E-08
0.266, 1.26E-08
0.265, 1.21E-08
0.264, 1.17E-08
0.263, 1.13E-08
0.262, 1.08E-08
0.261, 1.04E-08
0.26, 1.00E-08
0.259, 9.65E-09
0.258, 9.27E-09
0.257, 8.91E-09
0.256, 8.56E-09
0.255, 8.23E-09
0.254, 7.91E-09
0.253, 7.60E-09
0.252, 7.31E-09
0.251, 7.03E-09
0.25, 6.75E-09
0.249, 6.48E-09
0.248, 6.23E-09
0.247, 5.97E-09
0.246, 5.70E-09
0.245, 5.44E-09
0.244, 5.21E-09
0.243, 4.99E-09
0.242, 4.78E-09
0.241, 4.58E-09
0.24, 4.39E-09
0.239, 4.20E-09
0.238, 4.01E-09
0.237, 3.82E-09
0.236, 3.64E-09
0.235, 3.46E-09
0.234, 3.30E-09
0.233, 3.15E-09
0.232, 3.02E-09
0.231, 2.91E-09
0.23, 2.79E-09
0.229, 2.66E-09
0.228, 2.53E-09
0.227, 2.42E-09
0.226, 2.31E-09
0.225, 2.21E-09
0.224, 2.12E-09
0.223, 2.03E-09
0.222, 1.93E-09
0.221, 1.85E-09
0.22, 1.77E-09
0.219, 1.69E-09
0.218, 1.61E-09
0.217, 1.53E-09
0.216, 1.45E-09
0.215, 1.35E-09
0.214, 1.27E-09
0.213, 1.20E-09
0.212, 1.14E-09
0.211, 1.07E-09
0.21, 1.02E-09
0.209, 9.60E-10
0.208, 9.08E-10
0.207, 8.61E-10
0.206, 8.21E-10
0.205, 7.84E-10
0.204, 7.36E-10
0.203, 6.70E-10
0.202, 6.06E-10
0.201, 5.53E-10
0.2, 5.23E-10
0.199, 5.07E-10
0.198, 4.88E-10
0.197, 4.63E-10
0.196, 4.39E-10
0.195, 4.23E-10
0.194, 3.96E-10
0.193, 3.69E-10
0.192, 3.41E-10
0.191, 3.19E-10
0.19, 3.02E-10
0.189, 2.86E-10
0.188, 2.74E-10
0.187, 2.62E-10
0.186, 2.51E-10
0.185, 2.33E-10
0.184, 2.09E-10
0.183, 1.88E-10
0.182, 1.72E-10
0.181, 1.40E-10
0.18, 1.13E-10
0.179, 9.66E-11
0.178, 8.38E-11
0.177, 6.86E-11
0.176, 4.35E-11
0.175, 2.46E-11
0.174, 9.42E-12
0.173, 7.79E-13
0.172, -4.67E-13
0.171, 5.29E-12
0.17, 4.59E-12
0.169, 1.71E-12
0.168, -3.74E-12
0.167, -2.18E-12
0.166, -5.61E-12
0.165, -1.10E-11
0.164, -1.64E-11
0.163, -2.17E-11
0.162, -2.38E-11
0.161, -2.89E-11
0.16, -2.33E-11
0.159, -2.30E-11
0.158, -2.32E-11
0.157, -2.56E-11
0.156, -3.40E-11
0.155, -4.28E-11
0.154, -4.21E-11
0.153, -5.48E-11
0.152, -6.79E-11
0.151, -7.05E-11
0.15, -6.88E-11
0.149, -7.20E-11
0.148, -8.32E-11
0.147, -9.62E-11
0.146, -9.62E-11
0.145, -1.04E-10
0.144, -1.12E-10
0.143, -1.15E-10
0.142, -1.12E-10
0.141, -1.05E-10
0.14, -9.51E-11
0.139, -8.86E-11
0.138, -8.79E-11
0.137, -8.33E-11
0.136, -8.01E-11
0.135, -7.93E-11
0.134, -7.70E-11
0.133, -7.45E-11
0.132, -7.14E-11
0.131, -7.05E-11
0.13, -5.87E-11
0.129, -5.54E-11
0.128, -5.10E-11
0.127, -5.31E-11
0.126, -5.86E-11
0.125, -5.41E-11
0.124, -6.13E-11
0.123, -7.58E-11
0.122, -7.97E-11
0.121, -7.81E-11
0.12, -7.68E-11
0.119, -7.83E-11
0.118, -7.99E-11
0.117, -8.74E-11
0.116, -9.05E-11
0.115, -9.33E-11
0.114, -1.00E-10
0.113, -1.02E-10
0.112, -1.02E-10
0.111, -9.52E-11
0.11, -8.50E-11
0.109, -7.50E-11
0.108, -7.24E-11
0.107, -6.94E-11
0.106, -6.41E-11
0.105, -6.17E-11
0.104, -5.82E-11
0.103, -5.34E-11
0.102, -4.93E-11
0.101, -5.00E-11
0.1, -3.68E-11
0.099, -2.87E-11
0.098, -2.17E-11
0.097, -1.47E-11
0.096, -1.12E-11
0.095, -1.01E-11
0.094, -3.16E-11
0.093, -4.60E-11
0.092, -6.28E-11
0.091, -3.46E-11
0.09, -4.75E-12
0.089, -2.05E-11
0.088, -5.13E-11
0.087, -5.26E-11
0.086, -2.27E-11
0.085, -2.84E-11
0.084, -3.61E-11
0.083, -1.94E-11
0.082, -4.49E-11
0.081, -3.27E-11
0.08, -4.51E-11
0.079, -4.18E-11
0.078, -4.45E-11
0.077, -4.17E-11
0.076, -4.24E-11
0.075, -3.91E-11
0.074, -3.85E-11
0.073, -3.57E-11
0.072, -3.50E-11
0.071, -3.33E-11
0.07, -3.31E-11
0.069, -2.77E-11
0.068, -1.77E-11
0.067, -4.72E-11
0.066, -7.35E-11
0.065, -3.75E-11
0.064, -3.50E-11
0.063, -3.88E-11
0.062, -3.02E-11
0.061, -2.12E-11
0.06, -2.23E-11
0.059, -2.48E-11
0.058, -2.34E-11
0.057, -2.38E-11
0.056, -2.60E-11
0.055, -2.86E-11
0.054, -2.57E-11
0.053, -2.48E-11
0.052, -2.12E-11
0.051, -1.71E-11
0.05, -2.48E-11
0.049, -1.90E-11
0.048, -1.61E-11
0.047, -1.82E-11
0.046, -1.11E-11
0.045, -1.50E-11
0.044, -1.60E-11
0.043, -1.14E-11
0.042, -1.02E-11
0.041, -2.11E-11
0.04, -2.44E-11
0.039, -1.93E-11
0.038, -2.46E-11
0.037, -2.03E-11
0.036, -1.59E-11
0.035, -1.79E-11
0.034, -1.30E-11
0.033, -1.36E-11
0.032, -1.53E-11
0.031, -1.63E-11
0.03, -1.92E-11
0.029, -1.22E-11
0.028, -1.48E-11
0.027, -1.11E-11
0.026, -5.84E-12
0.025, -1.47E-11
0.024, -1.01E-11
0.023, -9.11E-12
0.022, -9.19E-12
0.021, -9.65E-12
0.02, -1.39E-11
0.019, -1.07E-11
0.018, -1.14E-11
0.017, -8.10E-12
0.016, -7.47E-12
0.015, -1.18E-11
0.014, -1.14E-11
0.013, -1.80E-11
0.012, -7.16E-12
0.011, -1.95E-12
0.01, -9.58E-12
0.009, -7.55E-12
0.008, -1.07E-11
0.007, -1.35E-11
0.006, 3.66E-12
0.005, -2.41E-12
0.004, -6.93E-12
0.003, -1.18E-11
0.002, -5.76E-12
0.001, -1.56E-13