Feb. 1, 2024   13:17:34
Cyclic Voltammetry
File: c:\users\lab\d3talesrobotics\roboticsui\robotics_api\workflows\actions\examples\cv.bin
Data Source:  Experiment
Instrument Model:  CHI650E
Header:  CV
Note: 

Init E (V) = 0
High E (V) = 0.8
Low E (V) = 0
Final E (V) = 0
Init P/N = P
Scan Rate (V/s) = 0.01
Segment = 2
Sample Interval (V) = 0.001
Quiet Time (sec) = 2
Sensitivity (A/V) = 1e-5

Segment 1:

Segment 2:

Potential/V, Current/A

0.000, 1.100e-9
0.001, 1.116e-9
0.002, 1.022e-9
0.003, 1.100e-9
0.004, 1.195e-9
0.005, 1.148e-9
0.006, 1.093e-9
0.007, 1.132e-9
0.008, 1.179e-9
0.009, 1.179e-9
0.010, 1.108e-9
0.011, 1.179e-9
0.012, 1.195e-9
0.013, 1.234e-9
0.014, 1.155e-9
0.015, 1.258e-9
0.016, 1.281e-9
0.017, 1.281e-9
0.018, 1.163e-9
0.019, 1.281e-9
0.020, 1.281e-9
0.021, 1.297e-9
0.022, 1.289e-9
0.023, 1.210e-9
0.024, 1.321e-9
0.025, 1.305e-9
0.026, 1.305e-9
0.027, 1.289e-9
0.028, 1.171e-9
0.029, 1.297e-9
0.030, 1.313e-9
0.031, 1.321e-9
0.032, 1.265e-9
0.033, 1.265e-9
0.034, 1.305e-9
0.035, 1.344e-9
0.036, 1.265e-9
0.037, 1.360e-9
0.038, 1.368e-9
0.039, 1.258e-9
0.040, 1.383e-9
0.041, 1.336e-9
0.042, 1.273e-9
0.043, 1.376e-9
0.044, 1.383e-9
0.045, 1.297e-9
0.046, 1.360e-9
0.047, 1.399e-9
0.048, 1.297e-9
0.049, 1.281e-9
0.050, 1.336e-9
0.051, 1.383e-9
0.052, 1.297e-9
0.053, 1.376e-9
0.054, 1.383e-9
0.055, 1.336e-9
0.056, 1.313e-9
0.057, 1.376e-9
0.058, 1.399e-9
0.059, 1.399e-9
0.060, 1.328e-9
0.061, 1.407e-9
0.062, 1.368e-9
0.063, 1.360e-9
0.064, 1.376e-9
0.065, 1.415e-9
0.066, 1.431e-9
0.067, 1.368e-9
0.068, 1.376e-9
0.069, 1.423e-9
0.070, 1.478e-9
0.071, 1.344e-9
0.072, 1.454e-9
0.073, 1.431e-9
0.074, 1.360e-9
0.075, 1.438e-9
0.076, 1.462e-9
0.077, 1.360e-9
0.078, 1.415e-9
0.079, 1.407e-9
0.080, 1.383e-9
0.081, 1.415e-9
0.082, 1.391e-9
0.083, 1.415e-9
0.084, 1.415e-9
0.085, 1.399e-9
0.086, 1.438e-9
0.087, 1.391e-9
0.088, 1.462e-9
0.089, 1.391e-9
0.090, 1.446e-9
0.091, 1.454e-9
0.092, 1.376e-9
0.093, 1.431e-9
0.094, 1.431e-9
0.095, 1.368e-9
0.096, 1.431e-9
0.097, 1.415e-9
0.098, 1.368e-9
0.099, 1.486e-9
0.100, 1.415e-9
0.101, 1.446e-9
0.102, 1.462e-9
0.103, 1.493e-9
0.104, 1.376e-9
0.105, 1.423e-9
0.106, 1.407e-9
0.107, 1.478e-9
0.108, 1.462e-9
0.109, 1.376e-9
0.110, 1.415e-9
0.111, 1.446e-9
0.112, 1.415e-9
0.113, 1.360e-9
0.114, 1.415e-9
0.115, 1.454e-9
0.116, 1.478e-9
0.117, 1.352e-9
0.118, 1.454e-9
0.119, 1.478e-9
0.120, 1.446e-9
0.121, 1.313e-9
0.122, 1.446e-9
0.123, 1.493e-9
0.124, 1.478e-9
0.125, 1.383e-9
0.126, 1.462e-9
0.127, 1.415e-9
0.128, 1.415e-9
0.129, 1.407e-9
0.130, 1.321e-9
0.131, 1.431e-9
0.132, 1.454e-9
0.133, 1.462e-9
0.134, 1.446e-9
0.135, 1.470e-9
0.136, 1.360e-9
0.137, 1.376e-9
0.138, 1.399e-9
0.139, 1.431e-9
0.140, 1.423e-9
0.141, 1.399e-9
0.142, 1.423e-9
0.143, 1.431e-9
0.144, 1.486e-9
0.145, 1.486e-9
0.146, 1.454e-9
0.147, 1.344e-9
0.148, 1.407e-9
0.149, 1.454e-9
0.150, 1.462e-9
0.151, 1.431e-9
0.152, 1.399e-9
0.153, 1.407e-9
0.154, 1.454e-9
0.155, 1.407e-9
0.156, 1.383e-9
0.157, 1.383e-9
0.158, 1.462e-9
0.159, 1.438e-9
0.160, 1.462e-9
0.161, 1.431e-9
0.162, 1.360e-9
0.163, 1.470e-9
0.164, 1.391e-9
0.165, 1.431e-9
0.166, 1.391e-9
0.167, 1.344e-9
0.168, 1.493e-9
0.169, 1.486e-9
0.170, 1.438e-9
0.171, 1.407e-9
0.172, 1.383e-9
0.173, 1.344e-9
0.174, 1.493e-9
0.175, 1.423e-9
0.176, 1.431e-9
0.177, 1.423e-9
0.178, 1.281e-9
0.179, 1.431e-9
0.180, 1.454e-9
0.181, 1.431e-9
0.182, 1.336e-9
0.183, 1.470e-9
0.184, 1.446e-9
0.185, 1.431e-9
0.186, 1.376e-9
0.187, 1.415e-9
0.188, 1.391e-9
0.189, 1.431e-9
0.190, 1.376e-9
0.191, 1.431e-9
0.192, 1.501e-9
0.193, 1.368e-9
0.194, 1.431e-9
0.195, 1.486e-9
0.196, 1.391e-9
0.197, 1.486e-9
0.198, 1.486e-9
0.199, 1.383e-9
0.200, 1.446e-9
0.201, 1.470e-9
0.202, 1.423e-9
0.203, 1.446e-9
0.204, 1.493e-9
0.205, 1.415e-9
0.206, 1.517e-9
0.207, 1.548e-9
0.208, 1.493e-9
0.209, 1.454e-9
0.210, 1.509e-9
0.211, 1.478e-9
0.212, 1.517e-9
0.213, 1.478e-9
0.214, 1.541e-9
0.215, 1.548e-9
0.216, 1.525e-9
0.217, 1.454e-9
0.218, 1.517e-9
0.219, 1.548e-9
0.220, 1.564e-9
0.221, 1.486e-9
0.222, 1.517e-9
0.223, 1.525e-9
0.224, 1.611e-9
0.225, 1.588e-9
0.226, 1.438e-9
0.227, 1.541e-9
0.228, 1.580e-9
0.229, 1.533e-9
0.230, 1.509e-9
0.231, 1.517e-9
0.232, 1.470e-9
0.233, 1.525e-9
0.234, 1.572e-9
0.235, 1.564e-9
0.236, 1.627e-9
0.237, 1.533e-9
0.238, 1.525e-9
0.239, 1.603e-9
0.240, 1.588e-9
0.241, 1.564e-9
0.242, 1.533e-9
0.243, 1.525e-9
0.244, 1.596e-9
0.245, 1.603e-9
0.246, 1.651e-9
0.247, 1.509e-9
0.248, 1.643e-9
0.249, 1.635e-9
0.250, 1.659e-9
0.251, 1.603e-9
0.252, 1.556e-9
0.253, 1.698e-9
0.254, 1.659e-9
0.255, 1.643e-9
0.256, 1.714e-9
0.257, 1.635e-9
0.258, 1.737e-9
0.259, 1.706e-9
0.260, 1.706e-9
0.261, 1.714e-9
0.262, 1.769e-9
0.263, 1.761e-9
0.264, 1.721e-9
0.265, 1.761e-9
0.266, 1.761e-9
0.267, 1.737e-9
0.268, 1.816e-9
0.269, 1.776e-9
0.270, 1.855e-9
0.271, 1.816e-9
0.272, 1.824e-9
0.273, 1.886e-9
0.274, 1.831e-9
0.275, 1.910e-9
0.276, 1.949e-9
0.277, 1.886e-9
0.278, 1.996e-9
0.279, 1.996e-9
0.280, 1.926e-9
0.281, 2.020e-9
0.282, 2.044e-9
0.283, 2.044e-9
0.284, 2.075e-9
0.285, 2.059e-9
0.286, 2.146e-9
0.287, 2.209e-9
0.288, 2.162e-9
0.289, 2.209e-9
0.290, 2.264e-9
0.291, 2.193e-9
0.292, 2.319e-9
0.293, 2.334e-9
0.294, 2.295e-9
0.295, 2.445e-9
0.296, 2.468e-9
0.297, 2.468e-9
0.298, 2.515e-9
0.299, 2.617e-9
0.300, 2.555e-9
0.301, 2.688e-9
0.302, 2.680e-9
0.303, 2.680e-9
0.304, 2.783e-9
0.305, 2.861e-9
0.306, 2.838e-9
0.307, 2.908e-9
0.308, 3.042e-9
0.309, 3.105e-9
0.310, 3.128e-9
0.311, 3.238e-9
0.312, 3.246e-9
0.313, 3.223e-9
0.314, 3.451e-9
0.315, 3.537e-9
0.316, 3.569e-9
0.317, 3.624e-9
0.318, 3.702e-9
0.319, 3.812e-9
0.320, 3.914e-9
0.321, 3.914e-9
0.322, 4.009e-9
0.323, 4.142e-9
0.324, 4.229e-9
0.325, 4.268e-9
0.326, 4.441e-9
0.327, 4.496e-9
0.328, 4.575e-9
0.329, 4.787e-9
0.330, 4.850e-9
0.331, 4.983e-9
0.332, 5.086e-9
0.333, 5.243e-9
0.334, 5.369e-9
0.335, 5.471e-9
0.336, 5.683e-9
0.337, 5.793e-9
0.338, 5.934e-9
0.339, 6.092e-9
0.340, 6.296e-9
0.341, 6.445e-9
0.342, 6.493e-9
0.343, 6.815e-9
0.344, 6.964e-9
0.345, 7.098e-9
0.346, 7.255e-9
0.347, 7.499e-9
0.348, 7.695e-9
0.349, 7.876e-9
0.350, 8.096e-9
0.351, 8.300e-9
0.352, 8.576e-9
0.353, 8.717e-9
0.354, 8.992e-9
0.355, 9.181e-9
0.356, 9.440e-9
0.357, 9.621e-9
0.358, 1.001e-8
0.359, 1.024e-8
0.360, 1.045e-8
0.361, 1.071e-8
0.362, 1.102e-8
0.363, 1.126e-8
0.364, 1.152e-8
0.365, 1.172e-8
0.366, 1.210e-8
0.367, 1.239e-8
0.368, 1.271e-8
0.369, 1.291e-8
0.370, 1.328e-8
0.371, 1.356e-8
0.372, 1.386e-8
0.373, 1.418e-8
0.374, 1.446e-8
0.375, 1.485e-8
0.376, 1.512e-8
0.377, 1.550e-8
0.378, 1.587e-8
0.379, 1.609e-8
0.380, 1.645e-8
0.381, 1.680e-8
0.382, 1.715e-8
0.383, 1.751e-8
0.384, 1.778e-8
0.385, 1.808e-8
0.386, 1.853e-8
0.387, 1.886e-8
0.388, 1.922e-8
0.389, 1.954e-8
0.390, 1.980e-8
0.391, 2.020e-8
0.392, 2.055e-8
0.393, 2.094e-8
0.394, 2.127e-8
0.395, 2.149e-8
0.396, 2.188e-8
0.397, 2.226e-8
0.398, 2.263e-8
0.399, 2.294e-8
0.400, 2.314e-8
0.401, 2.350e-8
0.402, 2.385e-8
0.403, 2.413e-8
0.404, 2.445e-8
0.405, 2.474e-8
0.406, 2.494e-8
0.407, 2.537e-8
0.408, 2.566e-8
0.409, 2.598e-8
0.410, 2.628e-8
0.411, 2.657e-8
0.412, 2.687e-8
0.413, 2.714e-8
0.414, 2.736e-8
0.415, 2.762e-8
0.416, 2.791e-8
0.417, 2.817e-8
0.418, 2.845e-8
0.419, 2.863e-8
0.420, 2.890e-8
0.421, 2.915e-8
0.422, 2.938e-8
0.423, 2.961e-8
0.424, 2.968e-8
0.425, 2.999e-8
0.426, 3.025e-8
0.427, 3.042e-8
0.428, 3.062e-8
0.429, 3.079e-8
0.430, 3.087e-8
0.431, 3.113e-8
0.432, 3.132e-8
0.433, 3.149e-8
0.434, 3.167e-8
0.435, 3.177e-8
0.436, 3.199e-8
0.437, 3.212e-8
0.438, 3.232e-8
0.439, 3.249e-8
0.440, 3.253e-8
0.441, 3.274e-8
0.442, 3.290e-8
0.443, 3.297e-8
0.444, 3.311e-8
0.445, 3.319e-8
0.446, 3.339e-8
0.447, 3.346e-8
0.448, 3.359e-8
0.449, 3.363e-8
0.450, 3.381e-8
0.451, 3.388e-8
0.452, 3.401e-8
0.453, 3.402e-8
0.454, 3.422e-8
0.455, 3.428e-8
0.456, 3.434e-8
0.457, 3.440e-8
0.458, 3.451e-8
0.459, 3.455e-8
0.460, 3.464e-8
0.461, 3.476e-8
0.462, 3.477e-8
0.463, 3.484e-8
0.464, 3.493e-8
0.465, 3.491e-8
0.466, 3.507e-8
0.467, 3.507e-8
0.468, 3.512e-8
0.469, 3.525e-8
0.470, 3.524e-8
0.471, 3.529e-8
0.472, 3.542e-8
0.473, 3.539e-8
0.474, 3.548e-8
0.475, 3.554e-8
0.476, 3.553e-8
0.477, 3.560e-8
0.478, 3.563e-8
0.479, 3.566e-8
0.480, 3.575e-8
0.481, 3.570e-8
0.482, 3.580e-8
0.483, 3.582e-8
0.484, 3.586e-8
0.485, 3.587e-8
0.486, 3.593e-8
0.487, 3.598e-8
0.488, 3.594e-8
0.489, 3.602e-8
0.490, 3.596e-8
0.491, 3.605e-8
0.492, 3.598e-8
0.493, 3.605e-8
0.494, 3.605e-8
0.495, 3.610e-8
0.496, 3.614e-8
0.497, 3.618e-8
0.498, 3.614e-8
0.499, 3.616e-8
0.500, 3.627e-8
0.501, 3.617e-8
0.502, 3.624e-8
0.503, 3.620e-8
0.504, 3.629e-8
0.505, 3.629e-8
0.506, 3.627e-8
0.507, 3.634e-8
0.508, 3.630e-8
0.509, 3.630e-8
0.510, 3.635e-8
0.511, 3.631e-8
0.512, 3.641e-8
0.513, 3.641e-8
0.514, 3.631e-8
0.515, 3.638e-8
0.516, 3.642e-8
0.517, 3.637e-8
0.518, 3.642e-8
0.519, 3.646e-8
0.520, 3.642e-8
0.521, 3.649e-8
0.522, 3.650e-8
0.523, 3.642e-8
0.524, 3.649e-8
0.525, 3.654e-8
0.526, 3.650e-8
0.527, 3.646e-8
0.528, 3.646e-8
0.529, 3.654e-8
0.530, 3.650e-8
0.531, 3.653e-8
0.532, 3.657e-8
0.533, 3.649e-8
0.534, 3.647e-8
0.535, 3.654e-8
0.536, 3.651e-8
0.537, 3.661e-8
0.538, 3.659e-8
0.539, 3.649e-8
0.540, 3.653e-8
0.541, 3.655e-8
0.542, 3.656e-8
0.543, 3.662e-8
0.544, 3.656e-8
0.545, 3.662e-8
0.546, 3.657e-8
0.547, 3.659e-8
0.548, 3.654e-8
0.549, 3.654e-8
0.550, 3.663e-8
0.551, 3.665e-8
0.552, 3.657e-8
0.553, 3.662e-8
0.554, 3.659e-8
0.555, 3.654e-8
0.556, 3.661e-8
0.557, 3.664e-8
0.558, 3.654e-8
0.559, 3.663e-8
0.560, 3.663e-8
0.561, 3.654e-8
0.562, 3.664e-8
0.563, 3.664e-8
0.564, 3.659e-8
0.565, 3.664e-8
0.566, 3.667e-8
0.567, 3.656e-8
0.568, 3.667e-8
0.569, 3.664e-8
0.570, 3.658e-8
0.571, 3.664e-8
0.572, 3.667e-8
0.573, 3.653e-8
0.574, 3.666e-8
0.575, 3.666e-8
0.576, 3.658e-8
0.577, 3.665e-8
0.578, 3.667e-8
0.579, 3.659e-8
0.580, 3.667e-8
0.581, 3.670e-8
0.582, 3.663e-8
0.583, 3.661e-8
0.584, 3.668e-8
0.585, 3.668e-8
0.586, 3.662e-8
0.587, 3.668e-8
0.588, 3.668e-8
0.589, 3.661e-8
0.590, 3.666e-8
0.591, 3.667e-8
0.592, 3.664e-8
0.593, 3.659e-8
0.594, 3.670e-8
0.595, 3.671e-8
0.596, 3.669e-8
0.597, 3.657e-8
0.598, 3.671e-8
0.599, 3.672e-8
0.600, 3.672e-8
0.601, 3.667e-8
0.602, 3.665e-8
0.603, 3.666e-8
0.604, 3.668e-8
0.605, 3.665e-8
0.606, 3.664e-8
0.607, 3.668e-8
0.608, 3.664e-8
0.609, 3.668e-8
0.610, 3.668e-8
0.611, 3.661e-8
0.612, 3.667e-8
0.613, 3.664e-8
0.614, 3.670e-8
0.615, 3.664e-8
0.616, 3.674e-8
0.617, 3.674e-8
0.618, 3.670e-8
0.619, 3.664e-8
0.620, 3.681e-8
0.621, 3.674e-8
0.622, 3.673e-8
0.623, 3.665e-8
0.624, 3.675e-8
0.625, 3.673e-8
0.626, 3.678e-8
0.627, 3.675e-8
0.628, 3.669e-8
0.629, 3.666e-8
0.630, 3.675e-8
0.631, 3.672e-8
0.632, 3.673e-8
0.633, 3.670e-8
0.634, 3.668e-8
0.635, 3.676e-8
0.636, 3.675e-8
0.637, 3.677e-8
0.638, 3.677e-8
0.639, 3.670e-8
0.640, 3.675e-8
0.641, 3.677e-8
0.642, 3.675e-8
0.643, 3.676e-8
0.644, 3.666e-8
0.645, 3.672e-8
0.646, 3.673e-8
0.647, 3.675e-8
0.648, 3.678e-8
0.649, 3.670e-8
0.650, 3.673e-8
0.651, 3.678e-8
0.652, 3.673e-8
0.653, 3.678e-8
0.654, 3.668e-8
0.655, 3.677e-8
0.656, 3.673e-8
0.657, 3.674e-8
0.658, 3.672e-8
0.659, 3.677e-8
0.660, 3.676e-8
0.661, 3.674e-8
0.662, 3.666e-8
0.663, 3.676e-8
0.664, 3.675e-8
0.665, 3.679e-8
0.666, 3.667e-8
0.667, 3.680e-8
0.668, 3.676e-8
0.669, 3.674e-8
0.670, 3.667e-8
0.671, 3.680e-8
0.672, 3.675e-8
0.673, 3.675e-8
0.674, 3.672e-8
0.675, 3.681e-8
0.676, 3.678e-8
0.677, 3.675e-8
0.678, 3.672e-8
0.679, 3.679e-8
0.680, 3.680e-8
0.681, 3.676e-8
0.682, 3.668e-8
0.683, 3.677e-8
0.684, 3.675e-8
0.685, 3.666e-8
0.686, 3.675e-8
0.687, 3.674e-8
0.688, 3.679e-8
0.689, 3.674e-8
0.690, 3.678e-8
0.691, 3.676e-8
0.692, 3.674e-8
0.693, 3.680e-8
0.694, 3.683e-8
0.695, 3.670e-8
0.696, 3.676e-8
0.697, 3.678e-8
0.698, 3.669e-8
0.699, 3.680e-8
0.700, 3.681e-8
0.701, 3.679e-8
0.702, 3.676e-8
0.703, 3.675e-8
0.704, 3.678e-8
0.705, 3.679e-8
0.706, 3.680e-8
0.707, 3.683e-8
0.708, 3.685e-8
0.709, 3.669e-8
0.710, 3.668e-8
0.711, 3.685e-8
0.712, 3.685e-8
0.713, 3.680e-8
0.714, 3.685e-8
0.715, 3.680e-8
0.716, 3.682e-8
0.717, 3.679e-8
0.718, 3.675e-8
0.719, 3.675e-8
0.720, 3.680e-8
0.721, 3.684e-8
0.722, 3.682e-8
0.723, 3.686e-8
0.724, 3.689e-8
0.725, 3.675e-8
0.726, 3.680e-8
0.727, 3.690e-8
0.728, 3.686e-8
0.729, 3.688e-8
0.730, 3.688e-8
0.731, 3.675e-8
0.732, 3.686e-8
0.733, 3.686e-8
0.734, 3.692e-8
0.735, 3.682e-8
0.736, 3.686e-8
0.737, 3.690e-8
0.738, 3.692e-8
0.739, 3.680e-8
0.740, 3.690e-8
0.741, 3.690e-8
0.742, 3.690e-8
0.743, 3.683e-8
0.744, 3.683e-8
0.745, 3.690e-8
0.746, 3.688e-8
0.747, 3.690e-8
0.748, 3.679e-8
0.749, 3.683e-8
0.750, 3.683e-8
0.751, 3.686e-8
0.752, 3.674e-8
0.753, 3.675e-8
0.754, 3.681e-8
0.755, 3.681e-8
0.756, 3.677e-8
0.757, 3.680e-8
0.758, 3.685e-8
0.759, 3.675e-8
0.760, 3.683e-8
0.761, 3.686e-8
0.762, 3.675e-8
0.763, 3.683e-8
0.764, 3.686e-8
0.765, 3.674e-8
0.766, 3.683e-8
0.767, 3.682e-8
0.768, 3.676e-8
0.769, 3.681e-8
0.770, 3.687e-8
0.771, 3.686e-8
0.772, 3.680e-8
0.773, 3.675e-8
0.774, 3.684e-8
0.775, 3.681e-8
0.776, 3.684e-8
0.777, 3.676e-8
0.778, 3.679e-8
0.779, 3.679e-8
0.780, 3.679e-8
0.781, 3.683e-8
0.782, 3.679e-8
0.783, 3.670e-8
0.784, 3.678e-8
0.785, 3.680e-8
0.786, 3.682e-8
0.787, 3.682e-8
0.788, 3.682e-8
0.789, 3.673e-8
0.790, 3.676e-8
0.791, 3.679e-8
0.792, 3.680e-8
0.793, 3.679e-8
0.794, 3.680e-8
0.795, 3.675e-8
0.796, 3.668e-8
0.797, 3.676e-8
0.798, 3.682e-8
0.799, 3.682e-8
0.800, 3.657e-8
0.799, 3.653e-8
0.798, 3.653e-8
0.797, 3.646e-8
0.796, 3.655e-8
0.795, 3.657e-8
0.794, 3.655e-8
0.793, 3.659e-8
0.792, 3.655e-8
0.791, 3.654e-8
0.790, 3.656e-8
0.789, 3.654e-8
0.788, 3.646e-8
0.787, 3.659e-8
0.786, 3.656e-8
0.785, 3.657e-8
0.784, 3.660e-8
0.783, 3.646e-8
0.782, 3.653e-8
0.781, 3.656e-8
0.780, 3.657e-8
0.779, 3.655e-8
0.778, 3.650e-8
0.777, 3.661e-8
0.776, 3.661e-8
0.775, 3.657e-8
0.774, 3.652e-8
0.773, 3.657e-8
0.772, 3.658e-8
0.771, 3.653e-8
0.770, 3.650e-8
0.769, 3.662e-8
0.768, 3.651e-8
0.767, 3.661e-8
0.766, 3.646e-8
0.765, 3.651e-8
0.764, 3.657e-8
0.763, 3.652e-8
0.762, 3.652e-8
0.761, 3.655e-8
0.760, 3.647e-8
0.759, 3.650e-8
0.758, 3.657e-8
0.757, 3.654e-8
0.756, 3.656e-8
0.755, 3.657e-8
0.754, 3.645e-8
0.753, 3.651e-8
0.752, 3.660e-8
0.751, 3.655e-8
0.750, 3.653e-8
0.749, 3.652e-8
0.748, 3.656e-8
0.747, 3.649e-8
0.746, 3.656e-8
0.745, 3.657e-8
0.744, 3.657e-8
0.743, 3.652e-8
0.742, 3.653e-8
0.741, 3.658e-8
0.740, 3.655e-8
0.739, 3.650e-8
0.738, 3.655e-8
0.737, 3.657e-8
0.736, 3.656e-8
0.735, 3.653e-8
0.734, 3.653e-8
0.733, 3.657e-8
0.732, 3.657e-8
0.731, 3.644e-8
0.730, 3.653e-8
0.729, 3.656e-8
0.728, 3.654e-8
0.727, 3.657e-8
0.726, 3.642e-8
0.725, 3.650e-8
0.724, 3.655e-8
0.723, 3.657e-8
0.722, 3.657e-8
0.721, 3.654e-8
0.720, 3.643e-8
0.719, 3.653e-8
0.718, 3.655e-8
0.717, 3.653e-8
0.716, 3.655e-8
0.715, 3.643e-8
0.714, 3.654e-8
0.713, 3.653e-8
0.712, 3.653e-8
0.711, 3.646e-8
0.710, 3.657e-8
0.709, 3.656e-8
0.708, 3.647e-8
0.707, 3.653e-8
0.706, 3.656e-8
0.705, 3.651e-8
0.704, 3.642e-8
0.703, 3.654e-8
0.702, 3.655e-8
0.701, 3.648e-8
0.700, 3.652e-8
0.699, 3.656e-8
0.698, 3.646e-8
0.697, 3.649e-8
0.696, 3.651e-8
0.695, 3.650e-8
0.694, 3.648e-8
0.693, 3.657e-8
0.692, 3.650e-8
0.691, 3.653e-8
0.690, 3.655e-8
0.689, 3.648e-8
0.688, 3.653e-8
0.687, 3.652e-8
0.686, 3.647e-8
0.685, 3.653e-8
0.684, 3.644e-8
0.683, 3.653e-8
0.682, 3.650e-8
0.681, 3.644e-8
0.680, 3.651e-8
0.679, 3.653e-8
0.678, 3.646e-8
0.677, 3.653e-8
0.676, 3.652e-8
0.675, 3.643e-8
0.674, 3.653e-8
0.673, 3.653e-8
0.672, 3.642e-8
0.671, 3.649e-8
0.670, 3.650e-8
0.669, 3.645e-8
0.668, 3.645e-8
0.667, 3.647e-8
0.666, 3.646e-8
0.665, 3.650e-8
0.664, 3.638e-8
0.663, 3.647e-8
0.662, 3.646e-8
0.661, 3.645e-8
0.660, 3.646e-8
0.659, 3.635e-8
0.658, 3.647e-8
0.657, 3.646e-8
0.656, 3.647e-8
0.655, 3.635e-8
0.654, 3.642e-8
0.653, 3.648e-8
0.652, 3.644e-8
0.651, 3.640e-8
0.650, 3.650e-8
0.649, 3.646e-8
0.648, 3.635e-8
0.647, 3.645e-8
0.646, 3.642e-8
0.645, 3.641e-8
0.644, 3.637e-8
0.643, 3.642e-8
0.642, 3.646e-8
0.641, 3.642e-8
0.640, 3.645e-8
0.639, 3.648e-8
0.638, 3.647e-8
0.637, 3.638e-8
0.636, 3.647e-8
0.635, 3.647e-8
0.634, 3.642e-8
0.633, 3.644e-8
0.632, 3.646e-8
0.631, 3.643e-8
0.630, 3.639e-8
0.629, 3.646e-8
0.628, 3.647e-8
0.627, 3.643e-8
0.626, 3.638e-8
0.625, 3.646e-8
0.624, 3.644e-8
0.623, 3.646e-8
0.622, 3.648e-8
0.621, 3.641e-8
0.620, 3.635e-8
0.619, 3.648e-8
0.618, 3.644e-8
0.617, 3.646e-8
0.616, 3.647e-8
0.615, 3.640e-8
0.614, 3.634e-8
0.613, 3.645e-8
0.612, 3.642e-8
0.611, 3.635e-8
0.610, 3.639e-8
0.609, 3.629e-8
0.608, 3.633e-8
0.607, 3.642e-8
0.606, 3.638e-8
0.605, 3.638e-8
0.604, 3.632e-8
0.603, 3.637e-8
0.602, 3.637e-8
0.601, 3.635e-8
0.600, 3.631e-8
0.599, 3.635e-8
0.598, 3.636e-8
0.597, 3.644e-8
0.596, 3.631e-8
0.595, 3.636e-8
0.594, 3.641e-8
0.593, 3.640e-8
0.592, 3.631e-8
0.591, 3.638e-8
0.590, 3.636e-8
0.589, 3.635e-8
0.588, 3.632e-8
0.587, 3.638e-8
0.586, 3.635e-8
0.585, 3.633e-8
0.584, 3.631e-8
0.583, 3.641e-8
0.582, 3.635e-8
0.581, 3.637e-8
0.580, 3.628e-8
0.579, 3.638e-8
0.578, 3.637e-8
0.577, 3.637e-8
0.576, 3.636e-8
0.575, 3.635e-8
0.574, 3.627e-8
0.573, 3.638e-8
0.572, 3.635e-8
0.571, 3.639e-8
0.570, 3.637e-8
0.569, 3.625e-8
0.568, 3.629e-8
0.567, 3.632e-8
0.566, 3.632e-8
0.565, 3.634e-8
0.564, 3.624e-8
0.563, 3.636e-8
0.562, 3.634e-8
0.561, 3.633e-8
0.560, 3.631e-8
0.559, 3.626e-8
0.558, 3.627e-8
0.557, 3.635e-8
0.556, 3.623e-8
0.555, 3.626e-8
0.554, 3.633e-8
0.553, 3.629e-8
0.552, 3.631e-8
0.551, 3.624e-8
0.550, 3.628e-8
0.549, 3.625e-8
0.548, 3.628e-8
0.547, 3.624e-8
0.546, 3.617e-8
0.545, 3.624e-8
0.544, 3.627e-8
0.543, 3.624e-8
0.542, 3.626e-8
0.541, 3.621e-8
0.540, 3.621e-8
0.539, 3.624e-8
0.538, 3.622e-8
0.537, 3.622e-8
0.536, 3.614e-8
0.535, 3.617e-8
0.534, 3.622e-8
0.533, 3.623e-8
0.532, 3.618e-8
0.531, 3.614e-8
0.530, 3.608e-8
0.529, 3.616e-8
0.528, 3.613e-8
0.527, 3.616e-8
0.526, 3.613e-8
0.525, 3.605e-8
0.524, 3.612e-8
0.523, 3.616e-8
0.522, 3.609e-8
0.521, 3.610e-8
0.520, 3.609e-8
0.519, 3.598e-8
0.518, 3.601e-8
0.517, 3.604e-8
0.516, 3.603e-8
0.515, 3.605e-8
0.514, 3.599e-8
0.513, 3.596e-8
0.512, 3.598e-8
0.511, 3.598e-8
0.510, 3.602e-8
0.509, 3.591e-8
0.508, 3.590e-8
0.507, 3.590e-8
0.506, 3.587e-8
0.505, 3.590e-8
0.504, 3.581e-8
0.503, 3.581e-8
0.502, 3.582e-8
0.501, 3.583e-8
0.500, 3.578e-8
0.499, 3.572e-8
0.498, 3.579e-8
0.497, 3.571e-8
0.496, 3.569e-8
0.495, 3.561e-8
0.494, 3.568e-8
0.493, 3.562e-8
0.492, 3.558e-8
0.491, 3.552e-8
0.490, 3.554e-8
0.489, 3.550e-8
0.488, 3.550e-8
0.487, 3.539e-8
0.486, 3.547e-8
0.485, 3.540e-8
0.484, 3.537e-8
0.483, 3.528e-8
0.482, 3.532e-8
0.481, 3.526e-8
0.480, 3.521e-8
0.479, 3.510e-8
0.478, 3.514e-8
0.477, 3.512e-8
0.476, 3.500e-8
0.475, 3.499e-8
0.474, 3.499e-8
0.473, 3.488e-8
0.472, 3.481e-8
0.471, 3.473e-8
0.470, 3.472e-8
0.469, 3.470e-8
0.468, 3.457e-8
0.467, 3.447e-8
0.466, 3.447e-8
0.465, 3.437e-8
0.464, 3.428e-8
0.463, 3.418e-8
0.462, 3.420e-8
0.461, 3.411e-8
0.460, 3.403e-8
0.459, 3.385e-8
0.458, 3.382e-8
0.457, 3.380e-8
0.456, 3.369e-8
0.455, 3.352e-8
0.454, 3.353e-8
0.453, 3.339e-8
0.452, 3.325e-8
0.451, 3.317e-8
0.450, 3.304e-8
0.449, 3.295e-8
0.448, 3.279e-8
0.447, 3.271e-8
0.446, 3.263e-8
0.445, 3.241e-8
0.444, 3.231e-8
0.443, 3.218e-8
0.442, 3.204e-8
0.441, 3.189e-8
0.440, 3.168e-8
0.439, 3.158e-8
0.438, 3.144e-8
0.437, 3.127e-8
0.436, 3.106e-8
0.435, 3.091e-8
0.434, 3.073e-8
0.433, 3.061e-8
0.432, 3.043e-8
0.431, 3.010e-8
0.430, 2.996e-8
0.429, 2.979e-8
0.428, 2.963e-8
0.427, 2.940e-8
0.426, 2.921e-8
0.425, 2.889e-8
0.424, 2.868e-8
0.423, 2.852e-8
0.422, 2.827e-8
0.421, 2.801e-8
0.420, 2.777e-8
0.419, 2.746e-8
0.418, 2.720e-8
0.417, 2.702e-8
0.416, 2.676e-8
0.415, 2.650e-8
0.414, 2.614e-8
0.413, 2.595e-8
0.412, 2.566e-8
0.411, 2.533e-8
0.410, 2.496e-8
0.409, 2.468e-8
0.408, 2.443e-8
0.407, 2.412e-8
0.406, 2.376e-8
0.405, 2.350e-8
0.404, 2.318e-8
0.403, 2.287e-8
0.402, 2.249e-8
0.401, 2.221e-8
0.400, 2.192e-8
0.399, 2.157e-8
0.398, 2.112e-8
0.397, 2.091e-8
0.396, 2.054e-8
0.395, 2.018e-8
0.394, 1.988e-8
0.393, 1.955e-8
0.392, 1.922e-8
0.391, 1.880e-8
0.390, 1.853e-8
0.389, 1.817e-8
0.388, 1.777e-8
0.387, 1.745e-8
0.386, 1.714e-8
0.385, 1.677e-8
0.384, 1.639e-8
0.383, 1.607e-8
0.382, 1.575e-8
0.381, 1.544e-8
0.380, 1.509e-8
0.379, 1.474e-8
0.378, 1.442e-8
0.377, 1.409e-8
0.376, 1.382e-8
0.375, 1.351e-8
0.374, 1.314e-8
0.373, 1.289e-8
0.372, 1.250e-8
0.371, 1.236e-8
0.370, 1.195e-8
0.369, 1.166e-8
0.368, 1.136e-8
0.367, 1.113e-8
0.366, 1.087e-8
0.365, 1.060e-8
0.364, 1.028e-8
0.363, 1.004e-8
0.362, 9.731e-9
0.361, 9.534e-9
0.360, 9.212e-9
0.359, 8.969e-9
0.358, 8.725e-9
0.357, 8.465e-9
0.356, 8.293e-9
0.355, 8.025e-9
0.354, 7.837e-9
0.353, 7.617e-9
0.352, 7.396e-9
0.351, 7.192e-9
0.350, 6.980e-9
0.349, 6.838e-9
0.348, 6.603e-9
0.347, 6.438e-9
0.346, 6.296e-9
0.345, 6.115e-9
0.344, 5.919e-9
0.343, 5.769e-9
0.342, 5.589e-9
0.341, 5.486e-9
0.340, 5.219e-9
0.339, 5.196e-9
0.338, 4.976e-9
0.337, 4.842e-9
0.336, 4.740e-9
0.335, 4.567e-9
0.334, 4.425e-9
0.333, 4.355e-9
0.332, 4.252e-9
0.331, 4.119e-9
0.330, 3.891e-9
0.329, 3.899e-9
0.328, 3.812e-9
0.327, 3.718e-9
0.326, 3.584e-9
0.325, 3.537e-9
0.324, 3.443e-9
0.323, 3.317e-9
0.322, 3.286e-9
0.321, 3.199e-9
0.320, 3.081e-9
0.319, 3.003e-9
0.318, 2.979e-9
0.317, 2.916e-9
0.316, 2.743e-9
0.315, 2.767e-9
0.314, 2.720e-9
0.313, 2.610e-9
0.312, 2.460e-9
0.311, 2.507e-9
0.310, 2.460e-9
0.309, 2.437e-9
0.308, 2.319e-9
0.307, 2.201e-9
0.306, 2.224e-9
0.305, 2.185e-9
0.304, 2.193e-9
0.303, 2.099e-9
0.302, 2.020e-9
0.301, 2.044e-9
0.300, 1.996e-9
0.299, 1.910e-9
0.298, 1.934e-9
0.297, 1.918e-9
0.296, 1.886e-9
0.295, 1.745e-9
0.294, 1.784e-9
0.293, 1.761e-9
0.292, 1.698e-9
0.291, 1.745e-9
0.290, 1.643e-9
0.289, 1.643e-9
0.288, 1.627e-9
0.287, 1.572e-9
0.286, 1.596e-9
0.285, 1.517e-9
0.284, 1.548e-9
0.283, 1.517e-9
0.282, 1.454e-9
0.281, 1.462e-9
0.280, 1.470e-9
0.279, 1.383e-9
0.278, 1.454e-9
0.277, 1.438e-9
0.276, 1.328e-9
0.275, 1.415e-9
0.274, 1.360e-9
0.273, 1.305e-9
0.272, 1.383e-9
0.271, 1.289e-9
0.270, 1.321e-9
0.269, 1.289e-9
0.268, 1.273e-9
0.267, 1.313e-9
0.266, 1.234e-9
0.265, 1.250e-9
0.264, 1.242e-9
0.263, 1.226e-9
0.262, 1.140e-9
0.261, 1.203e-9
0.260, 1.242e-9
0.259, 1.124e-9
0.258, 1.155e-9
0.257, 1.171e-9
0.256, 1.124e-9
0.255, 1.163e-9
0.254, 1.155e-9
0.253, 1.124e-9
0.252, 1.124e-9
0.251, 1.116e-9
0.250, 1.163e-9
0.249, 1.148e-9
0.248, 1.124e-9
0.247, 1.108e-9
0.246, 1.140e-9
0.245, 1.124e-9
0.244, 1.053e-9
0.243, 1.100e-9
0.242, 1.100e-9
0.241, 1.093e-9
0.240, 1.030e-9
0.239, 1.100e-9
0.238, 1.085e-9
0.237, 1.093e-9
0.236, 9.904e-10
0.235, 1.077e-9
0.234, 1.100e-9
0.233, 1.022e-9
0.232, 1.022e-9
0.231, 1.077e-9
0.230, 1.038e-9
0.229, 1.038e-9
0.228, 1.085e-9
0.227, 1.038e-9
0.226, 1.053e-9
0.225, 1.045e-9
0.224, 1.069e-9
0.223, 1.006e-9
0.222, 1.053e-9
0.221, 1.077e-9
0.220, 1.006e-9
0.219, 1.061e-9
0.218, 1.014e-9
0.217, 9.983e-10
0.216, 9.983e-10
0.215, 1.061e-9
0.214, 1.093e-9
0.213, 9.904e-10
0.212, 1.061e-9
0.211, 1.022e-9
0.210, 1.069e-9
0.209, 9.825e-10
0.208, 1.077e-9
0.207, 1.061e-9
0.206, 1.069e-9
0.205, 9.118e-10
0.204, 9.983e-10
0.203, 1.030e-9
0.202, 1.006e-9
0.201, 9.432e-10
0.200, 1.014e-9
0.199, 9.668e-10
0.198, 9.747e-10
0.197, 9.275e-10
0.196, 9.511e-10
0.195, 9.668e-10
0.194, 9.668e-10
0.193, 9.825e-10
0.192, 9.039e-10
0.191, 9.983e-10
0.190, 1.030e-9
0.189, 9.983e-10
0.188, 9.196e-10
0.187, 9.589e-10
0.186, 9.668e-10
0.185, 9.196e-10
0.184, 8.961e-10
0.183, 9.432e-10
0.182, 9.983e-10
0.181, 8.961e-10
0.180, 9.354e-10
0.179, 9.668e-10
0.178, 9.668e-10
0.177, 8.882e-10
0.176, 9.983e-10
0.175, 9.825e-10
0.174, 9.668e-10
0.173, 9.511e-10
0.172, 9.904e-10
0.171, 9.825e-10
0.170, 9.039e-10
0.169, 9.904e-10
0.168, 9.825e-10
0.167, 9.904e-10
0.166, 8.646e-10
0.165, 9.747e-10
0.164, 9.589e-10
0.163, 9.983e-10
0.162, 8.961e-10
0.161, 9.825e-10
0.160, 9.511e-10
0.159, 9.275e-10
0.158, 9.275e-10
0.157, 9.904e-10
0.156, 9.275e-10
0.155, 9.983e-10
0.154, 9.275e-10
0.153, 8.961e-10
0.152, 9.511e-10
0.151, 9.196e-10
0.150, 9.825e-10
0.149, 9.511e-10
0.148, 9.039e-10
0.147, 9.354e-10
0.146, 9.275e-10
0.145, 9.039e-10
0.144, 9.432e-10
0.143, 9.747e-10
0.142, 8.882e-10
0.141, 9.511e-10
0.140, 9.825e-10
0.139, 1.006e-9
0.138, 9.039e-10
0.137, 9.511e-10
0.136, 9.118e-10
0.135, 9.668e-10
0.134, 9.904e-10
0.133, 8.646e-10
0.132, 9.432e-10
0.131, 9.747e-10
0.130, 9.747e-10
0.129, 9.275e-10
0.128, 8.961e-10
0.127, 9.747e-10
0.126, 1.006e-9
0.125, 9.904e-10
0.124, 1.006e-9
0.123, 9.589e-10
0.122, 8.332e-10
0.121, 9.511e-10
0.120, 9.668e-10
0.119, 9.983e-10
0.118, 9.747e-10
0.117, 9.747e-10
0.116, 9.039e-10
0.115, 9.354e-10
0.114, 9.983e-10
0.113, 9.825e-10
0.112, 9.825e-10
0.111, 8.961e-10
0.110, 9.354e-10
0.109, 9.668e-10
0.108, 9.432e-10
0.107, 9.275e-10
0.106, 9.196e-10
0.105, 1.006e-9
0.104, 9.983e-10
0.103, 9.825e-10
0.102, 8.725e-10
0.101, 9.668e-10
0.100, 9.904e-10
0.099, 9.747e-10
0.098, 8.961e-10
0.097, 9.589e-10
0.096, 9.432e-10
0.095, 9.589e-10
0.094, 9.196e-10
0.093, 9.118e-10
0.092, 9.983e-10
0.091, 9.747e-10
0.090, 9.668e-10
0.089, 8.803e-10
0.088, 9.196e-10
0.087, 9.983e-10
0.086, 9.825e-10
0.085, 9.904e-10
0.084, 9.511e-10
0.083, 1.014e-9
0.082, 1.022e-9
0.081, 8.725e-10
0.080, 9.039e-10
0.079, 9.747e-10
0.078, 9.432e-10
0.077, 9.511e-10
0.076, 9.275e-10
0.075, 9.511e-10
0.074, 1.014e-9
0.073, 9.432e-10
0.072, 9.668e-10
0.071, 8.568e-10
0.070, 8.961e-10
0.069, 9.747e-10
0.068, 9.589e-10
0.067, 9.354e-10
0.066, 1.014e-9
0.065, 9.904e-10
0.064, 9.432e-10
0.063, 9.747e-10
0.062, 9.668e-10
0.061, 9.354e-10
0.060, 9.904e-10
0.059, 9.118e-10
0.058, 9.511e-10
0.057, 1.014e-9
0.056, 9.825e-10
0.055, 9.511e-10
0.054, 9.196e-10
0.053, 9.983e-10
0.052, 9.904e-10
0.051, 9.747e-10
0.050, 8.882e-10
0.049, 9.747e-10
0.048, 9.511e-10
0.047, 9.825e-10
0.046, 9.354e-10
0.045, 8.803e-10
0.044, 9.354e-10
0.043, 9.432e-10
0.042, 9.904e-10
0.041, 8.961e-10
0.040, 9.354e-10
0.039, 9.275e-10
0.038, 9.983e-10
0.037, 9.511e-10
0.036, 8.803e-10
0.035, 9.354e-10
0.034, 9.511e-10
0.033, 9.354e-10
0.032, 8.489e-10
0.031, 9.354e-10
0.030, 9.825e-10
0.029, 9.747e-10
0.028, 9.747e-10
0.027, 8.803e-10
0.026, 9.354e-10
0.025, 9.904e-10
0.024, 1.014e-9
0.023, 9.511e-10
0.022, 9.039e-10
0.021, 9.904e-10
0.020, 1.006e-9
0.019, 1.022e-9
0.018, 9.904e-10
0.017, 8.882e-10
0.016, 1.014e-9
0.015, 9.825e-10
0.014, 9.904e-10
0.013, 9.668e-10
0.012, 8.882e-10
0.011, 9.432e-10
0.010, 9.825e-10
0.009, 1.006e-9
0.008, 9.825e-10
0.007, 9.825e-10
0.006, 9.825e-10
0.005, 9.354e-10
0.004, 9.511e-10
0.003, 9.747e-10
0.002, 9.904e-10
0.001, 9.904e-10
