June 4, 2024   14:46:50
Cyclic Voltammetry
File: c:/users/lab/d3talesrobotics/data/concstudy_cond3_2c_tempo_/20240604/exp01_06tnkr\cycle04_cv01_14_43_42.bin
Data Source:  Experiment
Instrument Model:  CHI650E
Header:  CV cycle04_cv01_14_43_42
Note: 

Init E (V) = 0
High E (V) = 0.8
Low E (V) = 0
Final E (V) = 0
Init P/N = P
Scan Rate (V/s) = 0.01
Segment = 2
Sample Interval (V) = 0.01
Quiet Time (sec) = 2
Sensitivity (A/V) = 1e-5

Segment 1:

Segment 2:

Potential/V, Current/A

0.005, 6.453e-9
0.015, 5.416e-9
0.025, 4.803e-9
0.035, 4.520e-9
0.045, 4.276e-9
0.055, 4.197e-9
0.065, 4.127e-9
0.075, 4.111e-9
0.085, 4.150e-9
0.095, 4.307e-9
0.105, 4.504e-9
0.115, 4.952e-9
0.125, 5.526e-9
0.135, 6.327e-9
0.145, 7.562e-9
0.155, 9.424e-9
0.165, 1.204e-8
0.175, 1.570e-8
0.185, 2.081e-8
0.195, 2.764e-8
0.205, 3.669e-8
0.215, 4.848e-8
0.225, 6.271e-8
0.235, 7.960e-8
0.245, 9.776e-8
0.255, 1.170e-7
0.265, 1.362e-7
0.275, 1.540e-7
0.285, 1.699e-7
0.295, 1.839e-7
0.305, 1.953e-7
0.315, 2.045e-7
0.325, 2.119e-7
0.335, 2.178e-7
0.345, 2.226e-7
0.355, 2.263e-7
0.365, 2.293e-7
0.375, 2.317e-7
0.385, 2.338e-7
0.395, 2.356e-7
0.405, 2.369e-7
0.415, 2.381e-7
0.425, 2.392e-7
0.435, 2.400e-7
0.445, 2.408e-7
0.455, 2.415e-7
0.465, 2.422e-7
0.475, 2.430e-7
0.485, 2.437e-7
0.495, 2.439e-7
0.505, 2.443e-7
0.515, 2.447e-7
0.525, 2.451e-7
0.535, 2.457e-7
0.545, 2.460e-7
0.555, 2.460e-7
0.565, 2.463e-7
0.575, 2.467e-7
0.585, 2.468e-7
0.595, 2.470e-7
0.605, 2.475e-7
0.615, 2.474e-7
0.625, 2.475e-7
0.635, 2.476e-7
0.645, 2.477e-7
0.655, 2.479e-7
0.665, 2.481e-7
0.675, 2.481e-7
0.685, 2.483e-7
0.695, 2.483e-7
0.705, 2.487e-7
0.715, 2.487e-7
0.725, 2.487e-7
0.735, 2.489e-7
0.745, 2.491e-7
0.755, 2.492e-7
0.765, 2.494e-7
0.775, 2.497e-7
0.785, 2.497e-7
0.795, 2.499e-7
0.795, 2.496e-7
0.785, 2.495e-7
0.775, 2.494e-7
0.765, 2.492e-7
0.755, 2.491e-7
0.745, 2.489e-7
0.735, 2.487e-7
0.725, 2.487e-7
0.715, 2.485e-7
0.705, 2.483e-7
0.695, 2.481e-7
0.685, 2.479e-7
0.675, 2.477e-7
0.665, 2.474e-7
0.655, 2.472e-7
0.645, 2.471e-7
0.635, 2.469e-7
0.625, 2.466e-7
0.615, 2.464e-7
0.605, 2.462e-7
0.595, 2.460e-7
0.585, 2.457e-7
0.575, 2.455e-7
0.565, 2.453e-7
0.555, 2.449e-7
0.545, 2.445e-7
0.535, 2.441e-7
0.525, 2.438e-7
0.515, 2.433e-7
0.505, 2.427e-7
0.495, 2.421e-7
0.485, 2.415e-7
0.475, 2.409e-7
0.465, 2.401e-7
0.455, 2.392e-7
0.445, 2.383e-7
0.435, 2.372e-7
0.425, 2.359e-7
0.415, 2.346e-7
0.405, 2.329e-7
0.395, 2.312e-7
0.385, 2.291e-7
0.375, 2.266e-7
0.365, 2.237e-7
0.355, 2.202e-7
0.345, 2.159e-7
0.335, 2.104e-7
0.325, 2.041e-7
0.315, 1.960e-7
0.305, 1.861e-7
0.295, 1.743e-7
0.285, 1.603e-7
0.275, 1.444e-7
0.265, 1.270e-7
0.255, 1.084e-7
0.245, 9.020e-8
0.235, 7.290e-8
0.225, 5.710e-8
0.215, 4.381e-8
0.205, 3.291e-8
0.195, 2.446e-8
0.185, 1.810e-8
0.175, 1.339e-8
0.165, 1.004e-8
0.155, 7.617e-9
0.145, 5.989e-9
0.135, 4.771e-9
0.125, 4.017e-9
0.115, 3.474e-9
0.105, 3.105e-9
0.095, 2.900e-9
0.085, 2.735e-9
0.075, 2.633e-9
0.065, 2.523e-9
0.055, 2.539e-9
0.045, 2.468e-9
0.035, 2.405e-9
0.025, 2.476e-9
0.015, 2.445e-9
0.005, 2.445e-9
